3596
4000.36533379555
650.420452594757
1
128
2
89.6320612917466
89.573747279735
89.5938144512429
89.648353427743
89.6363702566605
89.6335551024167
89.6640341662789
89.6748989562589
89.6183375079662
89.5644865982459
89.5573808332045
89.5865823396145
89.6078657020781
89.5934370376572
89.5558453275208
89.5798603662667
89.6146159932554
89.5972059366357
89.5740549771329
89.5874004394387
89.5864899126123
89.541468097856
89.5104821216604
89.5567118623749
89.5872567216142
89.5913390280288
89.6083852520021
89.5770315403213
89.5071890496359
89.5281625029257
89.5832174539872
89.5758780469067
89.5077557309822
89.4686136824637
89.4751223421496
89.4702787900948
89.4273704717041
89.4839555801024
89.560801555046
89.5195566281746
89.4755082927182
89.4724942183936
89.4629874489271
89.4953836300988
89.4976535506569
89.4651416466269
89.4653469602997
89.4990340395164
89.4376900586524
89.3548283317763
89.3756736745851
89.4003877691771
89.422102424529
89.4828703973724
89.4828582030374
89.4586453537847
89.3549211169502
89.2920700975265
89.4701539532083
89.5752865009393
89.484692407329
89.4207735604347
89.4102926047178
89.4323321337456
89.4446735570506
89.4024074532784
89.3369378123188
89.2359524175235
89.1604506888429
89.2620938113742
89.3419763042596
89.3197868300482
89.3885147781068
89.4748658758297
89.4091997921289
89.2663608827403
89.2185626021785
89.3211284940781
89.4263893732213
89.4481976981936
89.3193073927954
89.1791417636285
89.2884510576636
89.3460397719307
89.1274133444297
89.1654711377843
89.4319307447185
89.4800446143245
89.4095235399751
89.4048773503288
89.3875060167821
89.3091656403054
89.2285777378662
89.205281082986
89.2009571603119
89.1584973295547
88.999671579233
88.8734853218599
88.7969655124304
89.005366828429
89.0931417388314
89.0963189334853
89.4052826957192
89.3017723128881
89.2291440251049
89.6255318666781
89.7390251488281
89.5713007895892
89.3936040206568
89.270103088931
89.2206603928831
89.0026451596521
88.7764491993832
89.0770989964097
89.4244678803589
89.3353544712601
89.2040445816161
88.9822900465248
88.7485619785132
89.0682862500359
89.3004991420477
89.229120405752
89.2039061167689
88.9714213413203
88.8641432301246
89.2652050277216
89.4352369455696
89.3091286320912
89.2294222810661
89.0971599035606
88.769767130142
88.8107264233374
89.1792862930202
89.1353213376759
88.7948002827143
88.6527693449811
89.0015663638054
89.468322800399
89.4487333191963
89.1663949399822
88.9105737287803
89.1097414763418
89.3951420412006
89.1735584820494
89.0614937070323
89.354167181893
89.3838463634101
89.1738971370547
88.8898219956246
88.7793311310048
88.8940312373971
88.6286510904402
88.3084213721227
88.694313860184
89.0401677431766
89.4960521944166
89.9033443562627
89.6887291948939
89.510871409006
89.4314423283204
89.2966402655131
89.1600155883339
88.9347204406391
88.6904219876081
88.7863584051834
88.8761935851254
88.6671310385318
88.6848841836782
88.8423477165591
88.6074567087256
88.7166458145615
89.3415310631949
89.1574275197702
88.9823022531031
89.3640233238668
89.2530645885295
88.8330363305127
89.0263256488896
89.2739816878704
89.1408168749401
88.9411225217788
88.7452258667671
88.7588417653963
88.9530095178945
88.9142481253135
88.8132726961801
88.610722506845
88.3670806513444
88.5544611352992
89.1509452398164
89.2883874891619
89.0883357777231
88.7376560598047
88.5801724711477
89.1529737021287
89.5052222804754
89.2941736316871
89.1436677650812
89.0633806776986
89.0019320195683
88.910737663326
88.7198323263102
88.3467783000196
88.3251093496144
88.864920748002
89.020988616098
88.7614860009804
88.5596830751583
88.3817262852727
88.483147073334
89.1490003035648
89.4001542004761
89.1693603590169
88.9408380744033
88.8218207191124
89.0307157328861
89.1432945399755
89.0258522360892
88.9478665135931
88.8771810877844
88.8071346855378
88.7549723215777
88.7169439314334
88.6956511402446
88.6525875269891
88.6221087288352
88.5429624187672
88.5413669805642
88.6900985732645
88.7331946887594
88.714139256123
88.6271560603357
88.5013666022397
88.7190228980353
88.917029784986
88.8601870383961
88.8264689096456
88.8056657786648
88.751162073072
88.7289875019546
88.6912881806792
88.5927308385035
88.3635168230444
88.4251814236761
88.822641233447
88.8606241856343
88.6403285059296
88.5004201055436
88.8115828016651
88.9690148595649
88.8072394400162
88.7049429480656
88.6201136217405
88.3795021832359
88.4302281976546
88.743371327757
88.6128138609051
88.5101490077252
88.8221843709685
88.8233143888214
88.5026630302694
88.1118129008839
88.1951558644984
88.708991457716
88.4414070074419
88.5524676357524
89.3575446395693
89.3462978209412
88.9053282973956
88.2806912274485
88.2824511690888
89.4518379593573
89.7959093503101
89.1186062909188
89.0204564980558
89.0530480507108
88.6477040814336
88.4121967754325
88.2587049217895
88.2231059584311
88.3041550638102
88.8846290354074
89.0671829295783
88.5434770733519
88.9498987779244
89.3301472858893
89.0641229252104
88.8277103707742
88.5901683855273
88.3978374955959
88.4488883576647
88.5412086102441
88.6174964634692
88.3800063171064
88.3548596249448
88.7479320013285
88.7021145217269
88.4061888824528
88.5498514562137
88.7231656652977
88.6041262150904
88.4436764500801
88.3973767339356
88.3875294148224
88.0812700347648
88.1370176639431
88.6460475760374
88.6147033703688
88.6970654940422
89.104223661253
89.013424674145
88.7736376400123
88.7094872473546
88.7066616596139
88.5826112148563
88.2948778957261
88.2861489639134
88.699722698838
88.7348828110841
88.603671898862
88.5484903936488
88.5048109191244
88.5231447328774
88.5179047631024
88.4752685447748
88.4575338772084
88.2656608830948
88.0554160488104
88.3213472735334
88.4025862088275
88.1603601849414
88.7505797619597
89.2050644165595
88.9887939876512
88.8030395887931
88.766500634741
88.670217170312
88.5606111018266
88.4313780920835
88.2254985542097
88.1794415060628
88.3420483739977
88.1917709973198
87.8696546143395
87.9117037339204
88.5798784137813
89.247447020939
89.1523494486735
88.5829834258783
88.2528306489999
88.6977115505532
88.8759287863557
88.9803973963214
89.1087674824725
88.8448233886542
88.7096482561532
88.5817155499172
88.4537388987158
88.3327103961096
88.2857541377798
88.2297486221906
88.1918059079201
88.1810548798053
88.1574137472848
87.9092327481812
88.0025481179252
88.5255607205879
88.5615240399357
88.4044637007748
88.191947946745
87.8872386953528
88.0228086086356
88.2498955379963
88.5638456525518
88.5899366607818
88.9300176213866
89.4880951350938
89.1980955804953
88.7613377414407
88.5140116488637
88.4356150921745
88.464407378669
88.4241203712657
88.2562187101082
88.0848736292353
88.0934941404731
88.1398343083828
88.0610239683147
87.9855184866172
88.0318764931235
88.2827782367773
88.2158486460321
87.9272124709867
87.6286641868087
87.7294861363717
88.459223864627
89.0243919162032
88.748504189042
88.662587542895
88.6051740325201
88.4390472946206
88.3086728491384
88.1551289341817
87.9575367872919
87.8565987409369
88.1181542363133
88.2465499221709
88.4299243728146
88.4190308774261
88.0809855612799
88.165975241127
88.1466596547503
88.226220617952
88.5577414374132
88.3181254948
87.9333631582714
88.25309524188
88.3150220100635
88.2364234825935
88.4629617944319
88.3501733631121
88.2004767052392
88.0751133213846
88.0621069326336
87.9942197712267
88.0234720475169
88.0109121462173
88.0071476228311
88.1077421118917
87.9961939471914
87.8883725554612
88.1216646128767
88.150775152648
88.1489306699281
88.2749691900946
88.1584405948515
87.9972574227803
87.7727654783392
87.9745535446044
88.0878241260185
88.1865173449192
88.51648843614
88.364427591744
88.2675886123191
88.2498852733632
88.1930683474339
88.0935530564054
88.0846930748087
88.1548970821605
88.0402163360477
87.9402969742072
87.9500651770249
87.9072687965513
87.9786304981895
88.0100049711658
87.9495688001026
87.8668212468066
87.868202740919
87.8406285627964
87.6318255959676
87.799299405839
88.0451307511666
88.272089293357
88.5925865042796
88.3789181977232
88.2604785392654
88.2123205765412
88.1235995928319
88.0253497942523
88.0854458244181
88.0078018589662
87.9220666113434
87.9073312693564
87.9049189936592
87.8440055310404
87.7564673137381
87.7007168206046
87.8003751648722
87.9419911611018
87.8893441696899
87.847755543239
87.7744494332
87.6772909003018
87.7859404729545
87.8078280999775
87.865549695275
87.9247418676146
87.9041480968266
87.9133127520539
87.8703997187561
87.8271909542844
87.7911286805711
87.7473675554256
87.6227316037563
87.6800755840186
87.8917621200058
87.8835293968884
87.8500338866998
87.8070717330898
87.7064650527164
87.6629291729863
87.6187494383895
87.6232790648833
87.6648401592866
87.7014347163468
87.7406991250609
87.6847115933611
87.5919854590882
87.602004565963
87.7927424024494
87.7708580681926
87.6564593827107
87.6213417150308
87.6482456840037
87.6169888471974
87.575531345419
87.5599833736951
87.5499001536437
87.5276559907797
87.5753813022591
87.5610621247766
87.4972726171937
87.43147662335
87.5044396965407
87.620816992569
87.5663348855162
87.527074517593
87.4935683800862
87.4327856289201
87.3382382515559
87.3465338943465
87.495927891017
87.5298695494836
87.4364618157377
87.4362689840568
87.4212323366357
87.4033689391404
87.462784698277
87.4211407069671
87.3237867245799
87.3378969913429
87.3630906420563
87.3539032984977
87.3347669046453
87.3426634524799
87.3343852491141
87.3029193824639
87.2853273549769
87.2716088505257
87.2840916978237
87.2813969910526
87.2088486014322
87.1618996559805
87.2420617561245
87.2365936320408
87.2250965039569
87.2025416004118
87.1909327137447
87.1776620774542
87.1570079677185
87.1337542004941
87.1305889583798
87.1294419645516
87.1369952940991
87.1222490051733
87.0964461669409
87.0264653184557
87.0211232041164
87.0261248950904
87.0805946661609
87.0978531468054
87.0654972066656
87.0343718893009
87.057701895704
87.0676110038619
87.0320449385405
87.0337819727854
86.9984036271958
86.9914189742458
87.0432718899278
87.0441292388473
87.0083850543485
86.9748206141272
86.9506432657359
86.9568455899273
86.9676171486903
86.9205842886862
86.912142510199
86.8731049854502
86.7669497314519
86.7691330928594
86.8803029847864
86.8849253923704
86.8531789623973
86.8072674171128
86.8436439889546
86.8442839913719
86.8158969148087
86.8168630790791
86.7397434937228
86.6798210774245
86.6858419384541
86.7183639631948
86.7157211820405
86.690980115483
86.6906054108451
86.6939177461219
86.6693504207673
86.6125407611779
86.6565428440752
86.6918648183001
86.7106075212795
86.7414830923406
86.6981969806411
86.6460781405843
86.5966360404909
86.5783457666037
86.5646115402417
86.5651752907083
86.642263115864
86.6460444451291
86.5892679468559
86.6010843215845
86.5764983804335
86.4932329302172
86.471974981468
86.5136718565653
86.4802619245834
86.4462821271532
86.4686258693939
86.4535136565156
86.4233679455714
86.4506597822205
86.4628210275864
86.4728866997678
86.4677502671534
86.4037548776712
86.3811352607485
86.3547715163034
86.3254243507015
86.3667785860906
86.3893133127098
86.3729052731551
86.3334497424336
86.3706796295452
86.3819222125288
86.3431061928658
86.3251143043024
86.2790425023043
86.3425811909187
86.3945083591789
86.3773539189989
86.3478513457431
86.3667898409389
86.3475960957164
86.3278573279269
86.3283903480479
86.3189558721768
86.2745591335195
86.2403604892452
86.2286905433287
86.2250783895931
86.2352471794534
86.2466336295056
86.1863345750181
86.1373046397964
86.1657098544407
86.2038408146941
86.2053403889399
86.1713873238279
86.1605873372209
86.1489315989211
86.1176210194486
86.1117029511094
86.110852074532
86.1189413904837
86.093814058766
86.0945434246991
86.1313804805328
86.113329992108
86.0848375462673
86.0958986974011
86.0851343403089
86.0711353847108
86.0710484814775
86.1094866845675
86.0984472841883
86.0713070490611
86.0822502406868
86.05903013227
86.0132625660789
86.0472680850617
85.9985440800313
85.9388791744841
85.9724546676953
86.0035426011561
85.9969850986648
85.9967296425656
86.0304102914374
86.0428484213952
85.974169702242
85.9394173831744
85.9680773629653
85.9466406998506
85.9728603890118
85.9749183180302
85.9306762353288
85.8850537667864
85.8711987037992
85.9143669627722
85.962071920915
85.9811954971988
85.9622625666525
85.9500846121443
85.9371828563033
85.9200775723284
85.9148316179231
85.9010841386368
85.8612090805866
85.8361188437634
85.7955746545319
85.8052824067519
85.8161664005402
85.8207785526137
85.8819393568275
85.9020454313528
85.8717663166229
85.8376562308518
85.8006072265868
85.8286355772541
85.8494952039797
85.8050179707017
85.7813847704896
85.7686704847079
85.7852679954115
85.8160573671253
85.7685154772231
85.7270959889621
85.7168361264985
85.72734118563
85.7291007159669
85.7115532403542
85.7140643567242
85.7044512806348
85.7209921137971
85.7813468061857
85.8230467403012
85.7826127050273
85.730186449328
85.7167477613226
85.714816510585
85.69437940612
85.6893408586737
85.6992833272877
85.6849312768535
85.6725135587463
85.6603472632002
85.6491422737733
85.6835758841233
85.7548674376749
85.723463217992
85.6997161781752
85.6978537316255
85.683517331798
85.6740501433834
85.6566537045689
85.6581706785812
85.6597800004432
85.6157832424643
85.6077733291112
85.6506630072563
85.6213012919634
85.5706186534605
85.5468291169862
85.5810821024772
85.5524938946234
85.5274642851431
85.5909985363833
85.6125488532125
85.5797178985692
85.5612111841114
85.5581140778947
85.5727690069183
85.5856662129283
85.5792626554146
85.5830683032781
85.5842543660539
85.5815329232744
85.5508283540907
85.5408415267888
85.5335802158555
85.5181249675168
85.5094293936005
85.5044580433235
85.5081160782189
85.4825380957407
85.4567340616713
85.4806071183007
85.4930122280037
85.484972732721
85.4678393381743
85.4367823073492
85.4226374483205
85.4395551634087
85.458848023518
85.459215013415
85.4115456776634
85.411213566422
85.4945715424072
85.500954915248
85.4657559774461
85.4589102811028
85.4478112216365
85.4433078291279
85.4553532625769
85.4621973590967
85.4293791685789
85.3753023109827
85.3175535803925
85.2896055282756
85.3192827531066
85.3806781893669
85.4110708292838
85.3893550840257
85.3864418299498
85.4005168252339
85.3990893042952
85.3758828697591
85.3598384602824
85.3836899592929
85.4114253474353
85.4102744423029
85.359157248245
85.3011787335675
85.3059629984464
85.3577130448791
85.3836929900794
85.3860918932829
85.3586510823868
85.2995562956118
85.2933374711487
85.3377104546892
85.3560436897625
85.309297007568
85.2614243291884
85.2501815145871
85.2878395263203
85.2918613322787
85.2508531664409
85.2404304835156
85.2689722095877
85.3087104069211
85.3145682568557
85.2792124015071
85.2517672749558
85.2314291440853
85.2065966708685
85.2088246557477
85.2365909670808
85.2410096887934
85.2297707273895
85.2278425275186
85.2422010739615
85.2196728690559
85.1858088736574
85.2100479958436
85.2113720080259
85.1765542246009
85.1773787653156
85.1639276739162
85.1446311389727
85.1508473708249
85.186648229478
85.196202836838
85.1345354722476
85.1049029324278
85.1253363074624
85.1313866720187
85.1231976323049
85.1373379758455
85.1603874897902
85.1294337137024
85.1056458737724
85.0723455963836
85.066660505998
85.1134515113213
85.1403662180526
85.1038690303258
85.0861136785506
85.0905321581474
85.0874003084638
85.0862595185275
85.0809612974784
85.0510253771504
85.0547664313726
85.0945306115043
85.0623943628487
85.010579017076
85.036551321873
85.0453196115241
85.0144511792279
85.013009662127
85.0095747699917
84.9975410149884
84.9815758097281
84.9763324388165
84.9630729271539
84.9656436390655
84.9749528071257
85.0049450996897
85.0311906403969
85.0342011884469
85.047622972982
85.0473699511502
85.0352801804843
85.0052093703161
84.9722970902315
84.9528804363656
84.9497871507828
84.9502341114279
84.9736577651262
84.9758507640117
84.9667317041418
84.9580813277255
84.9678115349726
84.9576134684182
84.9373103607432
84.9625071682571
84.9964694205233
84.9763250616136
84.9195188354685
84.9002238630111
84.905952830754
84.9129212216102
84.9236907068401
84.9188608341599
84.9337226416798
84.9420056229258
84.8840437581124
84.8536527393172
84.8306694068317
84.8008192950642
84.8224127630928
84.8543225056155
84.8524852493737
84.8519311287332
84.8984431694217
84.9394144085431
84.9525959553738
84.9491186442348
84.9475595818218
84.9304213693516
84.9062923204928
84.878521209121
84.8658968280232
84.8705709166766
84.8883555916857
84.8737611637928
84.878249752346
84.8860291286445
84.8920869647655
84.8659957802462
84.8119551220955
84.7970067024027
84.8286177083782
84.8347314702342
84.815395537507
84.8069767579941
84.8205497568883
84.7944857275244
84.7592277485168
84.7655441608941
84.7637734429644
84.741122960408
84.7694916127686
84.7876878241816
84.768437231009
84.7560623890452
84.7592668173818
84.7640333161784
84.7726770116101
84.7677100925771
84.7730244051165
84.7811401649076
84.7866867449047
84.7775706840491
84.7799413509199
84.8007452665147
84.8516383106497
84.8579050327547
84.8193054400652
84.7876095119093
84.7697825683346
84.739953054201
84.7317724587872
84.7292878839677
84.6973995328826
84.6830410346818
84.6893377262193
84.7159480292057
84.7111688234083
84.7168431275964
84.7678832172322
84.7773268223977
84.7501286221555
84.7245796836699
84.7249146867724
84.7077576710572
84.6686476392997
84.6728308281419
84.7193442090825
84.7211277703644
84.6851454776629
84.6682340160406
84.6370047610167
84.6153195817712
84.627622122674
84.6473901917719
84.6742811813445
84.6863444747267
84.6670125918084
84.6312103538426
84.6250432302467
84.652105796089
84.6493752548973
84.6468591694525
84.6660549723457
84.656127872634
84.6639421954129
84.6995165416476
84.6734146877762
84.6064845280076
84.5682002520385
84.5779050499601
84.6207700049208
84.6398314074223
84.6485898158629
84.6796470416929
84.6869747676654
84.6716483893686
84.6504736133342
84.6229769077255
84.605082228466
84.5784278208308
84.6003794318955
84.6443134423849
84.619750981846
84.5895122011083
84.5992576475785
84.5820533265087
84.5723363587427
84.5591626629661
84.5290473134872
84.5326700120377
84.5605105851218
84.5453893135678
84.5380645799665
84.5676734715758
84.5647957142727
84.5616334208096
84.6098335918911
84.6288001401342
84.6144674226448
84.6087345652257
84.5852440026734
84.5309622552375
84.5170299577295
84.5421535196515
84.5516420337971
84.5442733605477
84.5543682364646
84.5178951733624
84.4671181779349
84.4804286386165
84.5192046233157
84.5219564798455
84.4918064921553
84.4820827085869
84.4892303841819
84.5098976492176
84.5259087579934
84.5337886409919
84.5248770388427
84.5122991138973
84.5231951594771
84.5090947821172
84.4682381897697
84.444248249809
84.4384134046756
84.4081419402597
84.3861689348409
84.4062033588766
84.4190578499845
84.4145770479853
84.4469556969065
84.4844700408378
84.454103608326
84.4199713662329
84.4385982195356
84.4505460446367
84.4503478357767
84.4613076372616
84.4381199785138
84.4060737262119
84.4234975814052
84.4327241528954
84.4276930413719
84.4086182379775
84.3861907048828
84.3801818277972
84.3735023327694
84.3661431661191
84.3554568558613
84.3314060679547
84.3209374940361
84.3329687847094
84.3365267581002
84.3298359651274
84.3324128308321
84.3167047542857
84.2897628669342
84.2638569021943
84.2654852634957
84.282617997485
84.289437787645
84.287971632374
84.2843294243154
84.2919340145294
84.3010265456233
84.2927537209098
84.2852149240342
84.2776730509507
84.3048300944974
84.3352336740942
84.3183607676725
84.3032465612767
84.3014526003682
84.3042968218957
84.3064877922223
84.2851441142731
84.2689215032358
84.2535370457862
84.2476203429475
84.2347248371396
84.1955077258399
84.1653917199859
84.1713404324637
84.1974437271279
84.2129733858752
84.2208925898697
84.2276950307911
84.1968622776236
84.1612220246437
84.1672046607349
84.1757502606052
84.1621689575254
84.1388666935839
84.1089816153491
84.1157279220019
84.1297850695658
84.1263464264027
84.118938095155
84.1188176815779
84.1145722521229
84.1405730368029
84.1575212422242
84.1593989908285
84.1796723839831
84.1943580053388
84.1941097520254
84.1902434216204
84.1806665729831
84.1806700519382
84.1695617554319
84.1557756181146
84.1583018032875
84.1582495908641
84.1492658337965
84.152069638411
84.1373001382094
84.1215312137688
84.1137808306032
84.107349107459
84.107784810624
84.1219694875546
84.1401452040825
84.1712879598236
84.1658355914061
84.1337796319826
84.1272142543966
84.132404638027
84.1446457616376
84.1497249952509
84.1256780083293
84.1041600588295
84.0985556715933
84.0993899747042
84.0890158377404
84.0882404755652
84.0934913859477
84.0778168281231
84.0623391061669
84.0620647210844
84.0400463287445
84.0141762531301
84.0171165021359
84.0421577565494
84.0462774418373
84.062428500612
84.1055118784979
84.1248737563
84.0915491648844
84.0503010098592
84.0497404439901
84.0521068918566
84.0391831726174
84.034757788576
84.0153650013878
84.0065485503541
84.0037087318698
83.98841800918
83.9813751884977
83.9947939853821
83.993936167274
83.982207678947
83.9823123368257
84.0003043503135
83.9969032582483
83.9735771814809
83.9452789568797
83.9267821187236
83.918030710181
83.9052627031684
83.9096326841025
83.950105507489
83.9697647768718
83.9544667345756
83.9349517745842
83.9165844669277
83.9093757820621
83.9040212063278
83.8822566524793
83.8678512612024
83.867823514089
83.8965915389438
83.9131269620257
83.9045638804226
83.9144965059353
83.9275409398982
83.9244536452662
83.9395183153972
83.9453521217296
83.9366746319814
83.9238291489243
83.911046368142
83.9006414289596
83.9000457893533
83.88591654582
83.8718038889356
83.8762282849619
83.8749029400649
83.8645916948959
83.8598829309702
83.83745478544
83.8376792044757
83.8526077871893
83.8424086485992
83.8425836637972
83.8578085424848
83.8526062727565
83.835799893734
83.8171752690478
83.8054474669682
83.7937422228983
83.8001980247052
83.8116695746657
83.8074760945431
83.8068873297716
83.814484483582
83.8137687357033
83.8095414449988
83.7931884748703
83.7932704578928
83.803766541072
83.7813796973561
83.7525983771293
83.7208892903248
83.7017730234168
83.7291026990805
83.7444027235966
83.7469000633996
83.7619448454637
83.7675759239256
83.7455947961019
83.7215868490473
83.7205874348995
83.7281691700224
83.7293041633906
83.752599776681
83.7575498621889
83.7315599567166
83.7157251727425
83.7256043144566
83.7290302011252
83.7166011540633
83.7085081551697
83.7172914185251
83.7160258000664
83.6924014047846
83.6691117900561
83.6700545791127
83.6589905584073
83.6554059240029
83.6828335235604
83.7047496335562
83.6992328357579
83.6902861111192
83.6793065785939
83.6732695870783
83.6815312078698
83.6720336729728
83.6600609199609
83.665157811373
83.6561548506551
83.6485547484386
83.6557169546851
83.6465638266324
83.6261544502207
83.6299961806431
83.6333602033335
83.6202968947521
83.5956272480304
83.5863365439324
83.6047425819469
83.6324196327414
83.6355075906996
83.6201019250047
83.6039782733831
83.6141122956181
83.6233407966891
83.6131895284746
83.5999048661985
83.5928969584369
83.5847132161776
83.5979191287721
83.6101824143988
83.6121884226891
83.6299280591839
83.6200332188537
83.5833734198279
83.5748599982303
83.5689063155333
83.5736738665342
83.5817912107159
83.5765358728598
83.5762713392706
83.5778612510521
83.5673398222999
83.5678908283443
83.585345146082
83.5909779247353
83.5712290549166
83.5439174265217
83.5091782007461
83.5038471690192
83.5266741208146
83.5418060405249
83.5436188688842
83.5485452673436
83.5597078449918
83.5530543508164
83.5380807693101
83.5412737161867
83.5326385976554
83.5146548318053
83.5143247397133
83.5227434624537
83.5283338533035
83.5292935967078
83.5130971453922
83.4968269968123
83.4946958347359
83.5123086678374
83.524094118574
83.5084371603341
83.4926018730533
83.4932117593212
83.4854711287003
83.4887472866396
83.4992378033421
83.4992553130521
83.5006980993289
83.4960214081194
83.4561579180155
83.4346833922663
83.4572063015032
83.4766711630392
83.4728008581467
83.4684270602472
83.4585280800859
83.4463628731315
83.4512332602737
83.4602516377939
83.4571517123036
83.453482616707
83.4462369404231
83.4410051654942
83.435139635294
83.43101599644
83.4150769156272
83.4083135923241
83.3951648382954
83.3782613025914
83.3831820279881
83.4005338318347
83.4133414422502
83.4064799984138
83.3901390095868
83.3979187000785
83.4110819157541
83.4053081400366
83.3955253360857
83.4115403359671
83.4216407570639
83.4082803110504
83.3938098638752
83.3936496665881
83.3957659719544
83.3898967723317
83.3675223758072
83.35513851406
83.3482935796452
83.3362762872942
83.327953084656
83.3331170773017
83.3317631210155
83.3270649839172
83.3365631344208
83.3346153023593
83.323035016469
83.3267300629608
83.3300487905678
83.3449226827933
83.3348676979785
83.31801160435
83.3197113657411
83.3204925497822
83.3191491232723
83.3336156606511
83.3456337545126
83.3485351298123
83.3527256418311
83.3612861976157
83.3730888387353
83.3823630057305
83.3659171193651
83.3656549289536
83.3917593562632
83.4017635453698
83.3886117420018
83.4044926768506
83.4326594368048
83.4344710282225
83.4181533746568
83.41259527674
83.4174173539993
83.4324072129311
83.4323005574538
83.4136309252421
83.406153573225
83.4290842911868
83.4593438907671
83.455552839969
83.4681776498121
83.5080560497274
83.5112537205654
83.5329011923978
83.5391265981311
83.5302956280747
83.5157946980571
83.5156620716268
83.5231884678501
83.5225217306799
83.506543924133
83.5230785955267
83.5466934501411
83.5444699354908
83.5541148790259
83.5752556892778
83.5819176285444
83.5745005982725
83.5649766972376
83.5798912708565
83.6035502253319
83.6137223416527
83.6257269308987
83.6486824831328
83.6580774369025
83.6681082794676
83.6419767207472
83.5961465347045
83.5916927297712
83.6173262813347
83.648835867228
83.6245909544961
83.5899407188074
83.6317282243605
83.6563270324601
83.6397308770523
83.65306936772
83.6908263403935
83.7243399242444
83.7397346208063
83.7224265997358
83.6992259998215
83.6857924885238
83.7022913895537
83.6990726972476
83.7024256546446
83.7227128009458
83.7267091301375
83.7194920540783
83.7356577219443
83.7472656799134
83.7259505867846
83.7085242580584
83.7319045219637
83.7629059905509
83.7834996755994
83.7496790274637
83.7346725099353
83.742990500308
83.7086775850441
83.6941529155597
83.7390797259964
83.7560137692471
83.7799326187264
83.8067030257397
83.8051565064327
83.8168184872594
83.8136816107782
83.8152616585366
83.853348793814
83.8613711939063
83.8110144393793
83.7673906061541
83.7989776985736
83.8101783902236
83.7930839912999
83.7782053823718
83.7864425977134
83.7736771836581
83.7702554221807
83.7549933444669
83.7606386676684
83.7721893096231
83.7672643427578
83.7844490646673
83.8184796791795
83.8326525903642
83.8301807887051
83.8365463025263
83.8577041543445
83.79078669934
83.7563941261913
83.7960945750315
83.8405284643134
83.8207677679604
83.78075253491
83.7582876275682
83.7572832538942
83.7475213658989
83.7591875366575
83.7860388105567
83.8181538972776
83.8097685495283
83.8107092229713
83.8059802854048
83.8187010965757
83.818486634414
83.796163524369
83.7755418546506
83.7625288507001
83.777118655819
83.7523564867688
83.7451097187335
83.776245471558
83.7894634689979
83.8109344511899
83.7720830787275
83.7583521248684
83.8092975288942
83.8015708611143
83.7625330444739
83.7555041979891
83.739097562326
83.7705112179102
83.7557852486488
83.7174508233235
83.7538278124306
83.7748708628524
83.7630767165182
83.7382188958703
83.7260066727339
83.7329254660285
83.7361245904737
83.7472500021463
83.7613878878396
83.7653670267259
83.7545648257544
83.7510068106884
83.7124074490635
83.7096171076931
83.7159336253381
83.7127773721051
83.7287979858265
83.7298992826999
83.6880037079694
83.6927922471885
83.6956028945168
83.6668436951064
83.6701181523282
83.7071071745486
83.6819426098336
83.6624239435192
83.6630936935314
83.6964037318507
83.6961164324484
83.6781009930533
83.6479576120974
83.6193328971814
83.6280903487149
83.6550637873808
83.6471710070823
83.6611413333656
83.6708210120941
83.6586923582663
83.6417844247551
83.6407059652867
83.6210709767477
83.6150767903146
83.5994961255859
83.5967558814744
83.5772613344528
83.5763007100808
83.566885509355
83.5681717205081
83.536418360555
83.5382862437473
83.5691269764347
83.5735512684092
83.5664144192547
83.5711453879514
83.5657094705251
83.5491012013095
83.5515451945873
83.5761688008573
83.5567696796509
83.5342990103047
83.5324878498972
83.5458920018075
83.5298347246596
83.5238523151111
83.5380279046465
83.5263407501354
83.5196830209766
83.5505744583124
83.56011698269
83.580751008682
83.5719475995138
83.5497375360719
83.5456413552021
83.5674819467829
83.5261526848163
83.475315673716
83.4840439806263
83.5114834956809
83.5032064893603
83.4997049730266
83.4819140910292
83.4771294058068
83.4884164445744
83.4799610096499
83.4584374719182
83.4490970114975
83.450847374859
83.4613230765164
83.4703645488371
83.4763811155087
83.4671808758374
83.4703499623503
83.4480372023346
83.419783540922
83.4262876464071
83.4425951598408
83.4333098636874
83.410544305834
83.3718155351276
83.3677658532431
83.3635279328248
83.3736385136218
83.4017744038646
83.401080974431
83.3773448486797
83.3658357756582
83.3522037503579
83.3741467431508
83.3791726475453
83.3491069334118
83.3217932099683
83.318570419454
83.3394954417648
83.3391118049394
83.317411677512
83.3294973596757
83.3166037130283
83.2825873289608
83.2660161157976
83.265477602612
83.2235157712079
83.2004995607154
83.225722086528
83.2558502095422
83.2506402785835
83.2252614453873
83.1954054589868
83.1952579906777
83.192887371144
83.1652239473388
83.1454420381179
83.1630778093901
83.1502359659935
83.1231131219919
83.1020740481799
83.0869154506248
83.0965377563492
83.1073527406495
83.126785359256
83.149783986816
83.1258870079267
83.1122376431463
83.1104587156374
83.1565733547428
83.1831073096338
83.2031739050222
83.2227766741745
83.2560867046646
83.2627435395172
83.2712316842446
83.2455920955204
83.2400840960049
83.2425304447151
83.2655816425359
83.2591076151524
83.246420271745
83.1864631833926
83.1606483939717
83.124605535546
83.0619716827846
82.9848021627427
83.0026017932671
82.9899652866544
82.9599816203457
82.9036359122622
82.8340240981255
82.7814185313818
82.7573536963627
82.7141056654696
82.6738732789261
82.5318004550726
82.4067756005991
82.3996616003134
82.5133341408285
82.6127406377198
82.7547607448878
82.8307446919096
82.9035624297462
82.9260298815944
82.9698534192767
82.944443155864
82.9820407712672
82.9209511805606
82.8971878759379
82.8469714683151
82.8920379096265
82.8184048292354
82.8716553835616
82.7881742300847
82.8043358682595
82.7257024269795
82.794203852145
82.7109595508763
82.7802607121484
82.6892416039614
82.742374152553
82.5921964609674
82.5914580800777
82.4600890192737
82.6100284224905
82.570348177739
82.7325123350254
82.6954741827685
82.7895331819668
82.8235244444284
82.8642648248936
82.8556134121131
82.8544354318069
82.9245415794965
82.8727317962377
82.9747040120521
82.9247823309712
82.999876388817
82.9219015423038
83.0377353712886
83.0172646957223
83.0167340925174
83.0243502355387
83.0319822464784
83.0458567835485
83.0414069678154
83.0986879255084
83.1371557568812
83.1476289638159
83.1705977518316
83.1548151882092
83.189074240571
83.1947284438794
83.2393353312956
83.2032388940371
83.2366922921235
83.2811033544725
83.2840182174489
83.2730358109759
83.3061768369084
83.3259332752576
83.3764944699415
83.4198068279211
83.4712581537607
83.4900619699191
83.5038116192816
83.553034591783
83.6015934565737
83.6282573582038
83.7393050874569
83.8137478156015
83.830583260876
83.8416620835665
83.877309591794
83.89875510879
83.9382571141821
83.987923307908
84.0606066526093
84.0831406613452
84.1355759960014
84.1532958841854
84.1367464858372
84.1344038299745
84.1732062847275
84.1978162193873
84.1979182115258
84.269894708708
84.3055884314332
84.3022507851107
84.3306991582929
84.3432029819188
84.4419460921571
84.5021409389887
84.4811591015869
84.4118521519847
84.4543057302036
84.4780351622847
84.5023793388141
84.6168485941655
84.7232884879259
84.6907199453103
84.6392867675848
84.6346847944569
84.6452766290732
84.6606065608383
84.7092628316442
84.7595746807623
84.8266277136622
84.8401215294465
84.8744281481412
84.9202929928603
84.9915572286143
84.9896929627739
84.888446762265
84.8626764091994
84.9504834822816
85.0775142866268
85.163649841922
85.1516808810481
85.113996072759
85.1070283788
85.1662670435443
85.2168311517695
85.2867787112152
85.3332402978566
85.3163828334034
85.3622091913391
85.4440139908075
85.4458323488975
85.4009267214394
85.4475707707223
85.5031425919085
85.484347710932
85.5310982289621
85.5868892706274
85.607296626652
85.6463904364732
85.6762693137971
85.6960244622915
85.6644418778974
85.6986761609456
85.7781046924739
85.7645576072721
85.8170770864417
85.9287463377772
85.9863687450825
85.9277012179168
85.8755588652574
85.9577543464962
86.0875558052773
86.1452400516481
86.1024183638957
86.0393796496507
86.0668372899185
86.2070465956423
86.251272555556
86.2062952797475
86.2019385568788
86.2323944235643
86.2824916814736
86.397079306075
86.4356056843985
86.4305737775006
86.3955837747274
86.4741984349145
86.6065019390732
86.6760089009017
86.742741810114
86.7373852590995
86.7276398655814
86.7928150835876
86.8595129415348
86.9372861059276
86.939770256655
87.0242172196237
87.1491685009437
87.153701442607
87.3363961318632
87.3758823678966
87.3266705599575
87.3344776333374
87.3643361213857
87.4294906989177
87.5172145355112
87.4428250712968
87.2279244001769
87.2726311039607
87.4733667439698
87.4132205659379
87.3112536627591
87.3553177037385
87.4995122048304
87.6609771210987
87.7139288549443
87.8654748218167
88.0226885303315
88.0819726243012
88.2670973538142
88.5460068621511
88.8282424648493
89.2201281596256
89.3223112384461
89.1422484468182
88.943369842892
88.6705991332227
88.3845686309272
88.123014777148
87.7825411697381
87.6519525620519
87.5816787626233
87.3413669932556
87.1622663132852
87.0918030351664
87.0422396339103
86.8859769332884
86.7031076573292
86.6522703878687
86.5386501561369
86.4536010593445
86.4016696219958
86.1774441999941
85.9870128411777
85.9426466877648
85.9231103323462
85.8833995660344
85.7555248217361
85.5423103522846
85.4630710010844
85.4231853362709
85.3517677334398
85.1695533712345
85.0234960611403
84.9694382520749
84.8698373039245
84.7904770911772
84.6964130507297
84.5549631980668
84.5064146742986
84.4409537028222
84.4084712298309
84.4262791321785
84.3861082833371
84.3296642859848
84.3191333541175
84.2833459504697
84.225624594265
84.2383402524164
84.2466274145278
84.2332613072618
84.233118255829
84.2457208879277
84.2775679598763
84.3254240114443
84.3864346815691
84.391388198464
84.3322964332477
84.2842421089375
84.3467816211082
84.3893717553472
84.4120193416938
84.3622241095998
84.341665748349
84.3855661602326
84.4273220110272
84.4156453955552
84.4480607786036
84.5158373938814
84.4699626063892
84.3608481685312
84.3883145560072
84.4849398569368
84.4913570895765
84.4081439327359
84.3801361671117
84.3919980799401
84.3799954610976
84.3150397511348
84.3296227303949
84.3151511545265
84.2698033405232
84.3182513318637
84.3963557986216
84.3890619658401
84.4133635740001
84.4187741946159
84.4466455921179
84.514287543809
84.5339492376535
84.5559405265566
84.5820630034419
84.6261843040715
84.7139087403042
84.7194853218042
84.7117576304002
84.8163456939119
84.8746111250796
84.8817591537213
84.8913620528554
84.9120132877094
84.9759431523352
85.0462393964713
85.1332506353372
85.1825984738924
85.1472964398266
85.104938702486
85.1719179353081
85.2768584271494
85.2260098685797
85.0850052035829
85.154882606958
85.2726553456428
85.3964489318182
85.409865363591
85.4038861190366
85.4677973178247
85.5381448230531
85.5480639182315
85.7399413580982
86.0216419934389
86.2056147441325
86.3639898443759
86.4882010594319
86.5983344204161
86.6737509760356
86.6929402806659
86.6995550461054
86.7408051330997
86.8474378834841
87.0176744431185
87.1603980972326
87.3030581554727
87.4323994850784
87.3962384392074
87.3403602098741
87.4786051063471
87.6563772826764
87.8058335180166
87.8061210822472
87.6998075539203
87.7423960450443
87.7200231527023
87.560348216643
87.5515684895999
87.5453731397618
87.6170651562264
87.8236393794351
87.7574032988674
87.6237576930671
87.4990578444339
87.4295066882568
87.6039217063558
87.7889645885278
87.7736867554202
87.7014166027507
87.5632022699796
87.4517875993006
87.3654648413202
87.3268040601358
87.324638038847
87.2944497599591
87.2349261311943
87.2760389515188
87.2949769417385
87.278049772443
87.2094796755003
87.0575182838599
86.9761205782748
87.0348775359369
86.8589949053239
86.6869865128072
86.6445638381272
86.6324668298754
86.5371937095803
86.5122526031119
86.4964167567236
86.4707334636001
86.4512916244531
86.4385682655122
86.4400650765718
86.5188860448341
86.5502079729225
86.3210109992674
86.2648662490686
86.3791947538702
86.41052400662
86.3133403214365
86.3337403561398
86.4672731154006
86.5394496959792
86.6572394961109
86.7370640302094
86.7383858594896
86.8507274569504
87.0591703429149
87.3223663627174
87.5232794256413
87.596429797895
87.6819405005249
87.6525934695772
87.4870052499844
87.4165478811901
87.4393764730603
87.3759260042761
87.2378762570276
87.0828491079398
87.1229115759543
87.2476613422456
87.2023759364156
86.8415235746721
86.6239544052202
86.599230996354
86.4847781707947
86.4172338422416
86.395625081728
86.2982392306187
86.1937787914777
86.0307959007838
85.9093752999649
85.895886831817
85.8716916739883
85.7345164527891
85.6066261062115
85.4998266824629
85.4142276801566
85.3724266234778
85.3458952535713
85.2332656295583
85.1757792766874
85.1587506464664
85.0897618237642
84.995073067762
84.9621924860254
85.1679266422085
85.241616376517
84.9330488640624
84.6904890137429
84.6233676003635
84.5434291019356
84.4428789916328
84.4266594232084
84.4681648126226
84.4879247707585
84.4017256647159
84.324268672125
84.2777543999281
84.2383138478183
84.1694798576024
84.1056559812283
84.1202201979579
84.1387087566322
84.0838872611867
83.9915775524486
83.9469873639975
84.0361713293516
84.1358755448394
83.9979815227858
83.7565532189904
83.6712835116577
83.8042898358784
84.0324758759019
83.903620753392
83.5846665753186
83.481773649476
83.4628511169394
83.4762859603109
83.4587052780455
83.5066615082751
83.6014651530367
83.6134498286999
83.5297592844002
83.490062258564
83.4344146165787
83.3555346434089
83.3472383514943
83.3765158531848
83.3565087789166
83.2961779555503
83.2832323184701
83.2802594297396
83.2975422820825
83.2604421769139
83.1607674094142
83.1606548917297
83.2892973694203
83.3248913908173
83.2191358374803
83.1252807084977
83.0663814314279
83.0362117757965
83.2136090722594
83.3885288707586
83.1916104171176
82.9501139773205
82.8829248556633
82.8985160397469
82.9682024944561
82.965000417263
82.9558855279552
82.9094574724316
82.8687268672568
82.8618985794099
82.8839015404705
82.873976633525
82.8493271787619
82.8244457306296
82.8337302532998
82.8132601757557
82.79882343033
82.7881867450323
82.7778495450674
82.8428297624483
83.1168486303922
83.3476723657909
83.1981306747087
82.9216088543778
82.6977328153509
82.5167539942491
82.4536058370877
82.4629183032067
82.5072438561124
82.5486290623414
82.5888535009729
82.6485377613638
82.6686765228027
82.606708142394
82.5753703608768
82.5925503161034
82.6132923307095
82.5918486689553
82.5847728904338
82.5601782699261
82.5293296977845
82.483167834002
82.5136165300284
82.6134628321534
82.6449653287484
82.4417088446032
82.5420223758208
83.1170679306477
83.1786848402639
82.5601926602018
82.2733211556572
82.2244031865783
82.1592309756331
82.1372690145383
82.2463056714445
82.3898807922914
82.3976238684578
82.3228087099227
82.3303153960038
82.3536165356513
82.270001519457
82.2101894717157
82.5661355900257
82.978039365506
82.7013770587042
82.2323404691677
82.0810517582559
82.3039803004874
82.5436146758192
82.3214408922763
82.1063200944568
82.0924732528118
82.0721548262964
82.073555195789
82.0920689105617
82.1692354842219
82.3020665945685
82.2856624187082
82.1757688461322
82.1224446558972
82.0974178245616
82.0721231299094
82.1323037141998
82.2694857179412
82.2765889307272
82.0962596296236
82.037530481333
82.0687007197116
82.031037698433
81.9993085990118
81.9642180805271
81.975955696701
82.1715667370558
82.2547860244799
82.1909633026098
82.2873931470241
82.239395945746
81.935922298554
81.853096201347
81.9985881782975
81.9492551893533
81.8120584523259
82.1661204813198
82.6418830710119
82.5230035707305
82.1829777315175
81.901378901618
81.7023353120328
81.6852288017145
81.6481060990597
81.7936801245813
82.055591768445
82.0895867189861
81.901741619548
81.8794963461724
82.0646461905148
82.1827104997322
82.0324198459317
81.8910061320909
81.7940539549241
81.8425077607713
82.0093710157831
81.9304829525463
81.9704741148986
82.5725104853439
82.9746919041145
82.5217983288455
81.8151756931252
81.6623914989449
81.9769260481602
81.8755628355766
81.5533041219537
81.5131946127432
81.5330076422617
81.5255704932136
81.8767492530165
82.393067434531
82.1424297177015
81.7383919633324
81.5892901779629
81.6737731976391
81.9865327993599
81.9826177721377
81.675965989287
81.555072056297
81.4600830069101
81.6521099112203
82.2704200269848
82.2267576378765
81.9229988452137
81.9925365201939
81.8696183381854
81.5426690954754
81.2771858416604
81.0973970993526
81.2754183533069
81.478040445595
81.2011724719113
81.0240916239909
81.5309840018162
81.734696505631
81.2511269388883
80.8997603889779
80.7196924441597
80.8375790990517
81.8281169588579
82.7250769102858
81.8120789014731
80.6760315690937
80.3965886109988
80.5845254081058
80.4205366728707
80.1461031483558
80.1254133214154
80.1676172102899
80.1313890089139
80.1942640867981
80.3363917280906
80.3094594860386
80.180631159327
80.021639540273
80.03091200121
80.6290743374738
81.6625638739497
81.307935271612
80.458916020733
80.3646619521587
80.1892936967092
79.6417375379066
79.3038001207432
79.2984138528672
79.5015516628269
79.6109602976938
79.4883511294898
79.5816507178448
80.050888909035
80.2413864025015
80.2498219083125
80.1094149169458
79.6424268648253
79.3811101762049
80.300817486802
82.2157983103108
81.2859737704624
79.79724062303
79.3292638575269
80.0236044118858
80.9268996969847
80.0826780499644
79.3717097561104
79.3000210994959
79.3391923400813
79.5227921236039
79.7776524644482
79.9888537532237
80.128407227529
79.9546027792048
79.870255424917
80.6897351491619
82.3258624020902
82.3513303077789
80.6873415152452
79.7651644776277
79.7593520204423
79.8620291458414
79.7323131721693
79.7032445459902
79.7493710954796
80.4520699975942
81.3075577804388
80.7715191417172
80.1040373517777
80.2062381385492
80.3995494360988
80.4010112955215
80.9881810685432
81.1664113135876
80.4968422283021
80.0451113041117
79.9696618347964
79.9082379623235
80.1255328436463
80.8001147084801
80.9446315126858
80.5280365387793
80.2922692296219
80.2138954281015
80.1979236806379
80.2725669532718
80.277660579977
80.4560304474532
81.2535647375833
83.0138408726408
84.6368309499557
82.3712378425379
80.36923923273
79.61778910806
79.6788069489319
80.2141766787894
80.7707023369968
81.3762730196903
81.0320586802736
80.1842488006127
79.8522520775754
79.8943870983758
79.9550979036473
80.111444819478
80.2117513036528
80.3280121517877
80.674063297477
80.9054628967935
81.8567265795881
82.5199765964876
81.1372076087946
80.1299229985276
79.8787842639699
79.8493750223798
79.9195665120184
79.9944725945837
80.4159636193757
80.8042433041053
80.5753468932162
80.2129572024295
80.1987135483008
80.8407937973941
81.0913579020798
80.500427276603
80.0912390937305
79.9901781430025
79.9166781453746
79.9207227241204
80.8091639253744
81.7080449390917
80.8346645830122
80.0481470174636
79.8220351281489
79.7741606031891
79.7671865576618
79.8391904795299
80.0990015101621
80.2178664380498
80.1891054260489
80.2321518680315
80.1889623924129
80.1014442253816
80.1051955198848
80.2116641514553
80.2338560850342
80.2337431709761
80.2238156537211
80.208451902236
80.2066484821274
80.2426424740167
80.3022543073492
80.3345446982172
80.3982423668342
80.4327634659514
80.3664476604108
80.3494103279881
80.3452536228963
80.3670558355012
80.3746923742979
80.3590869874904
80.3478813113625
80.3686334105382
80.3776298149802
80.3829313839623
80.3855621567074
80.4102113610786
80.4263934863773
80.4314087922061
80.411665994081
80.4104636267645
80.3822997420602
80.7394361589335
81.9582775037686
81.8332324384277
80.709398367576
80.2190681181882
80.1339533372881
80.0527219517533
80.272502912031
81.2498305703018
81.4876425199877
80.788662733974
80.3661078203492
80.3313086481837
80.6886112545123
80.8117749910251
80.6168052732196
80.4975955991664
80.6317998542322
81.7502699872874
83.3518802294354
84.5863113456819
83.9189936710911
81.2717472771313
79.9326972237923
80.1930196951254
80.7666861400701
80.4081308564379
80.1448042311245
80.2650629785746
80.8954048002963
81.0433987496101
80.7160813801878
80.5217375330636
80.5313284621971
81.0952689265769
81.496001359209
81.2169072903231
81.4887259945481
81.8859364533952
81.693204496906
82.3310030036863
83.0443691280139
81.3268383826461
80.0226950878726
79.7895092186049
79.8291083087647
80.3779198664485
81.3335830667559
81.1576441966297
80.7473713619686
80.4231451570105
80.2888216595435
80.5198361125411
80.938395923446
80.9606463408234
81.1459890364678
81.4232257016749
80.8513818021745
80.7453584536632
81.2201533542231
82.0128441827366
82.0410790477164
80.8107006889011
80.0529786894711
80.5490069477402
81.0820978616507
80.6885570983642
80.4447977224967
80.1360044524079
80.2394883291429
80.6367999299711
80.4916388152671
80.6029587919486
80.8725004180953
81.2536553047063
82.1407888854483
83.2163592291382
82.4686646908734
80.5504518465051
79.6542957416345
79.6034136279175
79.8595344762584
80.0467328776894
80.1914782502025
80.8675618899958
80.8643064774887
80.7327550778434
81.2917600587114
80.8747452333913
80.1950405209484
80.0387678623801
79.9958985965072
80.2245825070985
80.9229250505768
81.4199527493215
80.8659043215433
80.5736431635058
80.5799179639927
80.2476410040179
80.0376965819903
80.0623721922288
80.1483873351088
80.2904089712762
80.5702623027874
80.6300005947705
80.5458670957788
80.5187962590991
80.5254910242362
81.0463481440246
81.281476404496
80.8075975712271
81.0491913451461
81.5599487744819
81.8198130029169
81.0451488907444
80.3123476517551
80.1192307959005
80.1715273897045
80.3008800506072
80.376779439358
80.9082757335763
81.4608165171122
80.9680610918483
80.5510993312558
80.4105720779871
80.3491996751516
80.4589973067555
81.0034546184019
81.5560765954471
82.4807713284863
82.2256640826487
80.8043492614031
79.9627748226683
79.6113141120612
79.7370429819136
79.9222176887663
79.9643741637952
79.9464847886862
80.1774791446033
80.6326972020342
80.4164433140094
80.1119577749204
80.0204467180921
79.9946006490576
80.0006303018818
80.0611289896444
80.1249545578187
80.1597785652301
80.1896230509864
80.155755952089
80.5544697590527
81.6561529585485
81.199234266531
80.3288790026989
80.0925541953978
80.1472712430909
80.1623570467591
80.2796682105883
80.7304556358151
80.8316841470744
80.5978503876413
80.5202476744823
80.5156462048858
80.5384497089419
80.7860010371572
81.1208022085847
80.8869340086169
80.719930298672
80.6406630724142
81.3324695494542
81.9863970746064
81.394981705461
80.9658615729192
80.6520532168433
80.5055130708067
80.5080565321635
80.5982356111041
80.7305532393514
80.878558045564
80.917279326868
80.9339664035035
80.9042785920877
80.8938076371794
80.8422673368587
80.9177934883151
81.2474273352328
81.1188207164425
80.8192894668602
80.7065342718348
80.6343085409696
80.6667973361032
81.067621729235
81.1753007572002
80.8221610848724
80.5571047073778
80.6148182285147
80.9484262601249
80.7537230958075
80.2461042069072
80.0886720818632
80.0761417905324
80.112188970589
80.0828436603174
80.3199277870784
80.7591875925545
80.4979867117411
80.0777898192932
79.8876167458602
79.8251745929336
79.8086195175437
79.8208952787474
79.8015946187185
79.8107580655615
79.7704386418668
79.7570565624716
79.6348688512019
79.5458148226769
79.6474975941671
79.8553890151954
79.8027393148222
79.4324239366661
79.2426411343511
79.1820440661656
79.2166364307815
79.3762741377866
79.3829217331167
79.2908176385833
79.2598392594522
79.2108597318119
79.2920731947182
79.7144118721031
79.6043075253305
79.4205071504382
79.2546806726979
79.0406517690681
79.0203082231366
79.0811688183956
79.1158399901414
79.1688453075312
79.2492155581224
79.213486137939
79.1758645471676
79.1806064577412
79.1951554011157
79.2263399817837
79.2643533749665
79.2511284017283
79.2330340108497
79.2445160498501
79.2626421297021
79.2748402259698
79.2684127680282
79.2749426895617
79.2582838914955
79.4343437544596
79.6144030941956
79.5980143104248
79.3777264535974
79.2100199237592
79.1920193383761
79.1056513027651
79.1186745872522
79.1484236046639
79.2066091802718
79.2325430051296
79.2664097013666
79.2675886302217
79.2721744465509
79.2789368867187
79.288476544643
79.281282236931
79.296819895225
79.3015081892807
79.3385513108119
79.3540156392972
79.3954834545383
79.4315448285778
79.5196505315335
79.5419139327493
79.5206719920669
79.555074970157
79.5408631941165
79.5900470722343
79.6727607292674
79.7624901169579
79.7947367180104
79.7943097539516
79.8334749881867
79.8942071222102
79.9906691465301
80.0479500835988
80.0839970585796
80.1364928746247
80.1951321142025
80.2421079326972
80.2976525478738
80.3523781120979
80.4086739328429
80.4575240534462
80.5132147491425
80.5651925523166
80.6240164690177
80.664635940691
80.6845815856968
80.7157914862894
80.7482649705024
80.7747684865037
80.8122534879262
80.8555533424667
80.8762814910008
80.9109419286764
80.9513539239604
80.9483330411441
80.9456442459882
80.9535619999276
80.9589168730103
80.9750249596588
81.0020441679931
81.0137581705307
81.0278480890692
81.0354875109791
81.0336540951963
81.0291303764465
81.0178740474782
81.0129197859515
80.9986229370543
80.9828397728937
80.978597695997
80.9981759527659
80.9701246662898
80.9381706264385
80.9115020736179
80.8880423911296
80.8694746051956
80.8563701006319
80.8469579605139
80.8348458817765
80.8294160792381
80.8125608299818
80.7919216707782
80.7950907979787
80.7849568103661
80.7408913431365
80.7222663182983
80.694246510245
80.6622880488126
80.6472588915013
80.6394066274485
80.6123694366064
80.5839847197762
80.5584290306086
80.529381405481
80.4935286947898
80.4602930999776
80.4208639214358
80.3895188855246
80.3557528350537
80.3339582962268
80.3025549742617
80.2510023742775
80.1933236703446
80.1466966675517
80.1036342810715
80.0606581287629
80.0098608667493
79.9611541220543
79.9040122946951
79.8393040910546
79.7829249088125
79.7290959742596
79.6743688093173
79.6082967200966
79.5357255708851
79.4726356934264
79.4046772832515
79.3451577807616
79.2814434254474
79.2191187119854
79.1685514711644
79.1133021744906
79.058867677606
79.0109890382721
78.9632798903187
78.9160231438321
78.8745715462118
78.8382654704252
78.7999144222181
78.7749183583556
78.7522171137624
78.7296789012443
78.7106563499965
78.7009507078105
78.6914133779444
78.6779029507611
78.6663466706744
78.6627907949965
78.6524944153709
78.6544392007554
78.6631125745405
78.6741824314931
78.6847953587783
78.6844561672933
78.6981910808367
78.7266235546972
78.7465632784631
78.7621457185857
78.7878913851439
78.8260108012165
78.8583021317303
78.8949089356596
78.9389061133068
78.9787104450343
79.0283213800504
79.0809472043558
79.1282384912348
79.1880780957827
79.2506542696757
79.3153207887397
79.3756759822345
79.4445206873311
79.5092394169068
79.5725516529663
79.6474305277073
79.7157879062539
79.7757919956727
79.8365504290016
79.8960915842162
79.95517715438
80.0187672634938
80.084477738249
80.1401475172644
80.1927312032306
80.2528392901898
80.3170224807223
80.365697908622
80.4109754877377
80.4530649934352
80.4905987344263
80.5334364666158
80.5822430296309
80.6314924856379
80.6740682077497
80.7059883226135
80.7509808887491
80.8049872507509
80.8484605882433
80.8750600749337
80.9056547421468
80.9423075804052
80.9786792234358
81.0193308768311
81.0606766981567
81.0825210359534
81.1049669217036
81.1408258216644
81.1728500406473
81.2001840482016
81.2220636419941
81.2332402353387
81.2525337698415
81.2765805047829
81.296445762717
81.3072442189276
81.3178780066502
81.3402775066174
81.3593492416233
81.3705014187383
81.3783673951089
81.3805055128981
81.3924198113456
81.4023567320436
81.4071631559883
81.416968051317
81.4232645850916
81.4223053685033
81.4202039553946
81.4241660224736
81.4245673152516
81.4190102967917
81.4207072857076
81.4127830489126
81.3924017171297
81.3847014000789
81.3788745304541
81.3707038671049
81.351446179459
81.3255813761655
81.2926820908267
81.263899357498
81.2388839274518
81.2078657978539
81.1693490018758
81.1365740655822
81.1074269528233
81.075417292681
81.050244080075
81.0289488085062
81.0079919069501
80.9866561552779
80.9628163282998
80.9401315986194
80.9195036377276
80.9027673027771
80.892698603692
80.8757721720895
80.8502678873728
80.8212048356082
80.7944230971555
80.776137599971
80.75628631962
80.7421838663605
80.7351452745542
80.7235884917076
80.69932584053
80.6723869002873
80.6521196423632
80.6381867170603
80.6249483060137
80.6090278249725
80.6012279610003
80.5911226858111
80.5704679195077
80.5616403458031
80.5577308507173
80.5475789696415
80.5473015672119
80.548551874955
80.5441674070373
80.5348735357124
80.5232506188479
80.508158673243
80.4980170104054
80.4933796100246
80.4758180868366
80.4601771798713
80.4403051725975
80.413127616034
80.3884637253741
80.3661781472939
80.3432430305332
80.321495087516
80.2970579952736
80.2803267755385
80.2713183547397
80.2705733120921
80.2708635442774
80.2691825691758
80.2812354911717
80.297907251712
80.3112625635637
80.3292401884389
80.3571584359352
80.3942558831281
80.422507048141
80.4506102236727
80.4994742254461
80.5401433809721
80.5762040709392
80.6084289913298
80.6300496972495
80.6544132798469
80.6835770844159
80.7115866162676
80.7361274074082
80.7513459432679
80.7600208762407
80.7639090995301
80.7743170549328
80.7832506350235
80.7837307896425
80.7690059447282
80.7550531369942
80.7475016877912
80.7471359174487
80.7426156397188
80.7346588894764
80.7335078535561
80.7367906351226
80.7379825923146
80.7532527468413
80.783194002651
80.7980469849746
80.8033218709626
80.8293335169175
80.8699323608417
80.9065820671568
80.9442729522129
80.9796988337964
81.0024482186489
81.0229953171533
81.0664117278664
81.1112950261199
81.1427103202429
81.1722506616854
81.2066276000394
81.2352129288663
81.2643963436523
81.2913646768656
81.3191270512266
81.3416190706494
81.3729366778743
81.4149130253208
81.4451920563438
81.4637277251608
81.4870565072023
81.5182082488754
81.5502267015429
81.5819806575273
81.6136977367367
81.6352454405486
81.6663935549565
81.699330307369
81.7176020946165
81.7327588627917
81.7546139919575
81.774469793124
81.7968865181776
81.8318868047714
81.8555083020023
81.8780895208314
81.8920845502623
81.9102703367604
81.9360383884912
81.9625370559554
81.9835320251425
81.9941824527967
82.0205011513457
82.0478844593385
82.0569637754035
82.0855320495812
82.1053438492036
82.1155529263653
82.1472727384929
82.1824014272716
82.2088934819308
82.2319097670693
82.2479847633244
82.2667757851384
82.2776915905525
82.2805101544348
82.2855591856084
82.3081572209745
82.3333466275917
82.3484731347667
82.3552386115273
82.3508393210078
82.3460353731394
82.3327871968413
82.3289164544582
82.3385874830142
82.3455619078952
82.3320291541791
82.3116379032433
82.3104994470818
82.3237027500714
82.3251660452259
82.3074462273208
82.2935655248627
82.285814969686
82.2693966680552
82.2520674953243
82.2430463656682
82.2384585802546
82.2200401888432
82.224006123687
82.236499173087
82.2332894224487
82.2167634226444
82.1902871443234
82.1684321160519
82.1699428108336
82.1687363442972
82.1570420233428
82.1465040460529
82.1337380524642
82.1051996872361
82.0943502642937
82.1023015404189
82.0895728138612
82.0604812751228
82.0374764930756
82.0163426115976
81.9993219445092
81.9792610890505
81.96361917138
81.9523636598677
81.9440100969693
81.9411760524277
81.9357279219518
81.9099637836307
81.8804432336046
81.8605296296723
81.835911151173
81.8062758173846
81.7852248340279
81.7674878128149
81.7349253857986
81.7287026513887
81.7171767327268
81.6825234734359
81.6565149015726
81.6397235683573
81.6262351401802
81.6216215200054
81.6251396468816
81.6083848781329
81.5804529235043
81.5808622687105
81.5813242676792
81.5729600386666
81.5718592606808
81.5607873744122
81.5415923510776
81.5246516964071
81.4983732523693
81.4810317760896
81.4718615457911
81.4498273167755
81.4347593573106
81.4107917824947
81.387591146106
81.3944748711591
81.3744375363091
81.335873432286
81.315037079461
81.3071375437786
81.2977601631797
81.2732479270636
81.2383515691089
81.197894156941
81.1821460440894
81.1818539012497
81.1557612028577
81.1104763697511
81.0818966934951
81.0609367125844
81.0602932407328
81.0422631437143
81.0039205588711
80.9627247221298
80.9166649679173
80.8955069594
80.8873844594026
80.854874708635
80.8176993924554
80.7668483157181
80.7396993815713
80.715832615995
80.6623478458815
80.6266585668409
80.6202349883864
80.6055027069261
80.5905814445312
80.5438627396168
80.4972297842701
80.461940843673
80.4201851936735
80.4093222694526
80.3907568083691
80.3663024923264
80.3451132389668
80.319688062857
80.3414689699659
80.3457448139482
80.3159706220705
80.3042312233642
80.3129567228814
80.3132741156743
80.3133316220117
80.3150382161255
80.3099175008349
80.2750576334549
80.2440978590444
80.2407268842985
80.2608466071026
80.264504526514
80.2412540289669
80.1955079664726
80.1587672785615
80.1292416844945
80.1117883675228
80.0924188456752
80.0509765156873
79.9987584909873
79.9652898413383
79.956618921187
79.9228120731676
79.8505130863865
79.8058955240465
79.7747840113157
79.716323016009
79.6419597259151
79.5545167375054
79.499752551961
79.465673870896
79.4123882226263
79.3962897529722
79.3611460929849
79.3117171234824
79.2967244764901
79.2858061069551
79.2553275542419
79.2262942991354
79.2003150369588
79.1845296913505
79.1633113842749
79.1487067438139
79.1514678491315
79.1517600414532
79.1495038913719
79.1790744385049
79.1816141368102
79.1319985123355
79.1139852130171
79.1352685603816
79.1243980804436
79.0974624696444
79.0901829077601
79.0878491393221
79.05134415321
79.0081311872934
78.9830775440006
78.9703055488112
78.9372347167267
78.9000169954615
78.8616072247329
78.8237548967581
78.7995639446592
78.7433631073459
78.6811154759428
78.6750617774287
78.6572266700884
78.6274457169954
78.5866754278033
78.5292712288406
78.4924844349991
78.4678700983087
78.4328830627351
78.4216763673907
78.3788868633247
78.3193446397374
78.29936247748
78.2625276296414
78.1986092495802
78.1540437073661
78.1130698620974
78.0809651330356
78.0330819239283
77.9670743079096
77.9486749616229
77.9503899827072
77.9104427685079
77.8620705845191
77.8264773523825
77.7929957601075
77.7163933096611
77.679608294565
77.6455307282795
77.6035671421387
77.5595526102304
77.5114251951984
77.4787238410732
77.4485310941655
77.3620252422033
77.268258228406
77.2169303663619
77.1542594955236
77.078768689427
77.013046956724
76.9018575996897
76.8095103514551
76.7436984626655
76.6666583314684
76.5456442590579
76.4600390231032
76.4368013417026
76.4252592701268
76.4558565618601
76.4871835735053
76.5047993890309
76.6125377605982
76.6767399886325
76.6826524169266
76.6971560694286
76.7329429986883
76.7493881325229
76.7716543218211
76.8268876276169
76.878674315212
76.9011426732783
76.9097263565044
76.9424395980656
77.0266264334703
77.099042134939
77.1365723362055
77.0629853893075
76.9929723150224
77.100547830277
77.2040419235053
77.1205184019459
77.0661617381187
77.0877040890601
77.0685624994751
77.0291920360872
77.098685799895
77.1578957958264
77.1660660741207
77.1889737110912
77.1510398112038
77.1390731848464
77.1451427241759
77.1096123143951
77.1467195192773
77.1890612998168
77.2267952959389
77.1741279606987
77.0638114171557
77.0807471405428
77.145332571485
77.135998504841
77.1846354453903
77.2211848711822
77.161388533581
77.1088564134798
77.1136196035876
77.0044709344694
77.0099963641469
77.0897832981125
77.1186963634172
77.0716833967483
77.0702036318804
77.0861777541012
77.0610006997875
77.0979213374026
77.1854679587336
77.2377033287181
77.2777632592501
77.1767467166996
77.0734878140612
77.1609917373139
77.2436585865261
77.1783094973691
77.0929116420717
77.2259156744963
77.3384146285698
77.2191074644374
77.2391070942686
77.3350967422685
77.4471398562922
77.5124843662591
77.4698362165413
77.364488645442
77.4393118527502
77.5723056272006
77.6003087156103
77.5686023407951
77.5908445255991
77.5981197289703
77.6664982685766
77.6694810839411
77.6720766057015
77.7652272542142
77.7730856389393
77.6793827161233
77.6982639225762
77.7119605905198
77.7316528619653
77.7841959056562
77.7721139290679
77.838125798313
77.9352976605954
77.9110194111661
77.8143212631207
77.7900009958263
77.9298742080961
78.3805579311566
79.8146352322175
79.812620834942
77.6696822371416
77.1496431197352
77.7392671198681
78.3855707653422
78.7231767209286
78.628910164857
78.4258351967698
78.4222747723297
78.6171627742532
78.5049314939482
78.0476664108571
78.1611354076125
78.6717503345414
78.8080836735666
78.9894634622648
79.0890484376283
79.0209945195077
79.194937464476
79.366593007908
