3596
4000.36533379555
650.420452594757
1
128
2
83.3645630835605
83.3667652680725
83.4129962693698
83.4209664471952
83.3999055868266
83.3884316581466
83.3609583837542
83.3745138368538
83.3816618817778
83.3406189342377
83.3121171517487
83.327215833162
83.3360104053792
83.3592138686651
83.3692317712411
83.3777910461839
83.3508733233062
83.3398450893714
83.3460877452499
83.3145851070624
83.3049355709352
83.3251199885698
83.3397293861505
83.3551956688623
83.3332840855535
83.319147746295
83.3299064004376
83.3223183717262
83.2736397829185
83.2954044122919
83.3063722402196
83.2867984728911
83.2664031725636
83.2660177502414
83.3078871356809
83.2976037735565
83.2276582663409
83.2632917232697
83.3071740602248
83.2551308730794
83.1999938906496
83.2241403374569
83.2549645736497
83.2499111609444
83.2207124513782
83.1817455658105
83.1834828930382
83.216969585161
83.1709363305919
83.1833521152674
83.2717229693954
83.2249115082962
83.190086474527
83.2771083075299
83.2101272801934
83.1231355080627
83.1226423904341
83.1813326470819
83.3886969126242
83.3499461618065
83.1555006783496
83.137568530628
83.1628782715888
83.1780915565462
83.1808053417079
83.1334876236801
83.0811125296457
83.033560100237
83.0157942699718
83.1793809361611
83.2053621314546
83.1283167790515
83.1501864868893
83.1821108523082
83.1316206823452
83.0479839180798
83.0788909761637
83.1950534659306
83.1947602419073
83.1215067051869
82.9956320635841
82.9566658544352
83.1491704677639
83.1771528859749
82.9537046216199
83.0835799967976
83.2973968952192
83.2069035632091
83.0489287545899
83.0010684897498
83.0047404110017
83.0493999327878
83.0362684170778
82.9799441039776
82.9180501609819
82.8790286621405
82.8198172690544
82.8119414899755
82.8089937156859
83.0112025266435
82.9304513590619
82.8636855405202
83.1681079571442
82.9565564607704
83.0283059673768
83.4679669954322
83.378244168183
83.117166796503
82.9951664781966
82.9978275714704
83.0136359590672
82.8324320728531
82.714618479423
83.0530877924951
83.115878705249
82.8440599072586
82.7226911604057
82.5830608918773
82.6312221446911
83.2082387738026
83.2133175568974
82.8874889252342
82.8482127507053
82.6647619991894
82.7446132233847
83.2762547053113
83.2276957640066
82.9214690705594
82.8482380604468
82.7751663044136
82.6316413426878
82.8736339887398
83.1123526231868
82.772796735831
82.4397638889091
82.5024111431949
83.100776258321
83.3904133779651
82.9532241576148
82.611526163123
82.5969107630643
83.0171655636292
83.1932712078032
82.7739893213661
82.668868179685
83.0073448056473
82.9233214579993
82.6908152390997
82.5530587669795
82.6085469146913
82.7328956314276
82.4264790666678
82.324888528018
82.9500632109923
83.1485400007721
83.254510163498
83.2721057672422
82.907676353032
82.9488874407598
82.9871614976375
82.8827078270099
82.7836338282704
82.6806851148791
82.5592205584968
82.7407837978945
82.6939812493624
82.326507168763
82.4080220427214
82.6123938680585
82.4182715950112
82.6718990795367
83.1598443480271
82.7445732846841
82.7124533149282
83.0747323005604
82.8131931893828
82.5038096892324
82.8637154057685
83.0341744493644
82.6985568025831
82.4828136565896
82.4697321144209
82.6457184834686
82.744948088758
82.5499395168051
82.4354940026459
82.2908801757074
82.2210492623823
82.6136958583769
83.0599761425004
82.8230828536567
82.5221055121898
82.3667416507591
82.5211260539207
83.2009929461978
83.1599252717221
82.704114668189
82.620985843725
82.6215938579197
82.594202587448
82.5301515286917
82.415964882184
82.2214119190995
82.4225858406016
82.8622590078059
82.642389306802
82.2884018456708
82.2034059038076
82.2749234546635
82.6172732778052
83.138158710662
82.9599012771685
82.5381884395875
82.3945144751248
82.5219784075651
82.8817623077863
82.8648452158975
82.5546675469809
82.4438031807928
82.4968056807993
82.5216157342609
82.4409688306533
82.3926978610201
82.4302768129984
82.4294281644622
82.3839346215423
82.3162705147816
82.3695752471716
82.472353197521
82.4002337497432
82.3498086823035
82.2974214823771
82.2750100084051
82.5971936118384
82.6954845010091
82.472558258175
82.3964477611623
82.3953037381762
82.3884867721154
82.3796845996911
82.3652814651357
82.2986767465008
82.1738893862289
82.3807380959292
82.666541344118
82.4010549587283
82.1878945514777
82.256595120499
82.6134496247168
82.5639573533268
82.3381310215261
82.3238999433465
82.3407337695502
82.2250121849988
82.4292527661791
82.6411097799002
82.3117995815043
82.1614085265441
82.383104100378
82.2794253280213
82.0627956799969
81.9565828880712
82.2753459799556
82.6996433949653
82.2464362608302
82.3846347593786
82.9666954819306
82.6041237608681
82.2039031189528
81.9170477260935
82.4056287513284
83.6138817826843
83.1906799771402
82.2935961323662
82.3998102271201
82.5505694632838
82.2532938103345
82.151494912061
82.1371769127112
82.2615612372591
82.4410787464461
82.7957430577647
82.5945893432761
82.0464104466818
82.5943863321636
82.7511652969898
82.3915630032625
82.2598497778997
82.1998305325691
82.2266974174041
82.3679658030021
82.3813625753716
82.2964826149334
82.0401242922771
82.169457049536
82.5204473254429
82.3068570793548
82.0884842555702
82.2835607290636
82.3673395868253
82.1964853571005
82.1377621063224
82.1226805094889
82.0943482881975
81.8643256583227
82.1365805917016
82.6024275038148
82.244687156123
82.2480586613514
82.6144526492922
82.4006709271008
82.2335346597161
82.2881454031265
82.3217221927975
82.2340318236196
82.0739315276028
82.1690301105152
82.5097582035471
82.3154424761247
82.1101845817297
82.1284954396838
82.148219469473
82.1618660951036
82.1567204172366
82.1301800896655
82.1060519849439
81.9904566167604
81.9180899349828
82.2344724654573
82.1869193288747
81.9658806437734
82.6169851667033
82.7754227859651
82.3594357716167
82.2441117851958
82.2767333348485
82.267623594108
82.1652218159933
82.1020837657516
82.0395192643168
82.1512603844539
82.2666112285851
81.9619941265172
81.7537848043074
82.0135635746985
82.591533730623
82.803688205443
82.2989312302558
81.8880852244253
81.9535556530817
82.6439790782017
82.7535234782398
82.6450670866616
82.5306177146191
82.1568565572119
82.1213937952387
82.1433754068173
82.1310854637685
82.0471269505857
82.0159852149519
81.993499810775
81.9831597692558
81.9387172142434
81.8781412069181
81.7522706062701
82.0389637705588
82.4438877114443
82.1615712271605
81.8931615227765
81.8233218514533
81.7747286992063
82.0945438203681
82.2957612146233
82.4193884370678
82.4018855230447
82.5866574852021
82.8689528291824
82.4163395269367
82.1381254038778
82.1137777762389
82.226396998125
82.2339651179413
82.1298207253071
82.0298375685942
81.9182722366989
81.9564019022996
81.9798133613782
81.8682867690311
81.7439456688143
81.8012443743148
82.0315936155151
81.8981126452121
81.7132671642876
81.6728741755584
82.0131726316145
82.5890938641062
82.681139542514
82.2336330347498
82.1690760573955
82.177750571417
82.0729937063397
82.0130606288738
81.9105167351915
81.8685794591987
81.9304545558175
82.1608761690379
82.0930053249262
82.1303065805141
82.0293739318148
81.7713149061196
82.0272276090963
82.0097762926823
82.0265716583569
82.2472320387615
81.8848163784068
81.7174586176904
82.1353724167927
82.1199044001129
82.0649182262089
82.2142703279068
81.9822140865884
81.895466662879
81.8825749986405
81.9158499648294
81.8912067524119
81.940585757355
81.9364350207986
81.9230903999364
81.9736819756418
81.8750857074211
81.8369520849399
82.0079379543886
81.9456353685451
81.9482445265393
82.0681090009417
81.8878730876649
81.7828836882833
81.7638473980034
82.0565969092092
82.1330336925553
82.1311121732324
82.295785370954
82.0294384075442
81.947775119916
82.0047783138323
81.9860381833553
81.9893480361075
82.0332931858987
81.9884182591421
81.8785819290223
81.8330959574183
81.8606623506643
81.8665809422209
81.8744631862013
81.8548280002176
81.8283230841836
81.8210042176163
81.803307988361
81.7713376415179
81.6787118329412
81.8929651579555
82.107893671833
82.2562574029698
82.36594622431
82.0280124803778
81.953629878615
82.0193671659855
82.0051898287013
81.9086759929236
81.9710990337338
81.9281176184794
81.8152628286998
81.7499316071324
81.7086694638016
81.6562168674107
81.6710732120556
81.7036797885369
81.800394660968
81.903973161453
81.8136487297294
81.7628322664718
81.6839068217693
81.6722842249164
81.8033208235072
81.7621827073039
81.7952297262297
81.8973099770495
81.8497857139879
81.7698724910068
81.7300099972717
81.7132181777725
81.6903999003408
81.6568994467628
81.5710003434753
81.5698364620747
81.6771265906111
81.6777355627991
81.630337325593
81.6254343769054
81.6165371173016
81.6684988077199
81.6284704879275
81.5907828670852
81.6006913423076
81.538438720759
81.5141479185356
81.4952833967487
81.4996274066216
81.5633784987902
81.655984774629
81.5929965071031
81.4666377707295
81.4726341593016
81.5000686813494
81.4911794110636
81.4813784832793
81.4256066169968
81.3526625113347
81.362855817983
81.3584508958526
81.3376563143719
81.3595146195431
81.3713185003678
81.4259709605043
81.4833843800463
81.3900444816586
81.3071205442918
81.2378809893805
81.2712491137794
81.2763579051915
81.2901704801348
81.334802787653
81.302226273073
81.2651508719031
81.2172346924306
81.1479680737038
81.1719697620696
81.2032410030167
81.1985356434423
81.2216759936803
81.234521505634
81.1956583438528
81.1943958253324
81.1699504126755
81.13400435103
81.1311626888527
81.1643590767362
81.1666629059559
81.121030212035
81.0728314525614
81.0359083932819
81.0076030013295
81.070246685415
81.0777077230799
81.0081258426677
81.0099968764525
81.0415525696969
81.0633633642834
81.0448297334664
80.9990998628308
81.0187220576839
81.0109021878953
80.9442962089152
80.9363734820697
80.9225354945434
80.8829590266044
80.8856709293497
80.89991086234
80.868971031017
80.8626119567881
80.9079999349382
80.8625833199606
80.8508667596967
80.8779821194604
80.8891968916299
80.8123362644622
80.8319162870625
80.8809183790684
80.8738982694831
80.8576312180581
80.7963531402569
80.7516433224549
80.754300063263
80.711322408898
80.6736085462359
80.7056551964515
80.6875240189008
80.6286378208013
80.5631295469789
80.5591640310801
80.6936547017967
80.7562844903709
80.6910175523652
80.6437829082646
80.5933880827534
80.6617007134811
80.6736903263241
80.5708514801752
80.5118709617926
80.4625073478289
80.4301712025152
80.4665359626376
80.4735419398972
80.4401623248408
80.4055311990757
80.4596005880861
80.5277328285806
80.5178268099936
80.4836611598621
80.4573223493605
80.4769302188529
80.4921067821318
80.5082403473743
80.4907311031368
80.4424841629856
80.4170682926484
80.4010386619844
80.3956951511373
80.4184860077886
80.4878901664712
80.4840129585863
80.3745570601889
80.3318919704223
80.3020991734005
80.274693238605
80.2660394692498
80.2460358853524
80.2219960181403
80.2460240962227
80.2598156697343
80.238022729828
80.2031619225355
80.2408312122132
80.2336408192514
80.1735990623341
80.1640352542675
80.1625602105879
80.1224359267934
80.1347394525816
80.0891647350885
80.0619721750026
80.0986381248744
80.1658496386475
80.1831073543008
80.1546081080087
80.1159398987607
80.0650583054083
80.0340320196708
80.0450797085527
80.072757062531
80.0777538605301
80.08759784813
80.0915712624353
80.1177693574181
80.1043951870889
80.0374444888931
80.0388821282121
80.0655528428331
80.0570285428819
80.028403272189
80.0237616826604
80.0007043598254
79.9568156660853
79.9560778840852
79.9691474105615
79.9400348360434
79.9212783335173
79.9540700487496
79.9188074740313
79.8577545081154
79.8712498430743
79.8602702856642
79.7907301827559
79.7441268538356
79.7317867486771
79.7696266300151
79.8100471431519
79.8228672267517
79.8620578605392
79.8825564268153
79.8789715547423
79.8681100705543
79.8582087668463
79.8212273254499
79.7954019761646
79.7943309239148
79.7986569330016
79.7374367320302
79.6913730780657
79.7095847919398
79.7193613235644
79.7061913278688
79.6559052584226
79.6420351762743
79.6634026971407
79.6736550394393
79.6605170107325
79.6797805277643
79.7154508938458
79.686093359572
79.618905382816
79.5757127428134
79.5926488393103
79.609664021634
79.5895979000274
79.5412187603358
79.5135268876584
79.5561816613856
79.5840047274334
79.6147803987186
79.6364002695655
79.643333245695
79.6331571022946
79.6084184413266
79.6161736946761
79.5964636491497
79.5580171389098
79.5201529425347
79.4921426030943
79.4784406904458
79.4837132953821
79.4901993535532
79.5018352876657
79.5272834490432
79.5332323704439
79.5207502752905
79.517901131732
79.4917775678312
79.505458769641
79.5156639225649
79.4771150027417
79.4088197242436
79.4003411399806
79.4184569350883
79.3928549475848
79.3589102537253
79.3637171460873
79.3637054665099
79.347331561548
79.3462492985674
79.3864681301567
79.3777868180143
79.3642873323344
79.3916020858256
79.4090033274041
79.4162738152028
79.4005789102461
79.367429599002
79.3708507270525
79.3429386936715
79.316464950722
79.3498296177355
79.3674146834108
79.3164425755704
79.2853668311468
79.2927514138603
79.2991679120994
79.3149505271452
79.3309630458927
79.323282847476
79.3117068157175
79.3040416382591
79.3084977746944
79.2831586991674
79.2687903656128
79.2706994663621
79.287594665351
79.2708721640398
79.2035231914216
79.1721327727825
79.1942113501944
79.1947308254435
79.1954460270396
79.188718682733
79.2073294006877
79.2005896599447
79.1897125483189
79.2013587191237
79.1752781554765
79.1255328321
79.1157818736311
79.1555247212134
79.1937441365327
79.2190810010904
79.2456156840435
79.2172236416536
79.1727582355269
79.1317095993068
79.1200218084127
79.1479238392265
79.1671182757523
79.1650099876804
79.1385357416694
79.1259734020634
79.1105336615239
79.0890593702009
79.1088979081365
79.1513501682435
79.1535708791614
79.1065546439853
79.0872205752321
79.0871821930679
79.0732137784811
79.0491799761696
79.0390242672859
79.0395104624694
79.0688883814637
79.0954693338791
79.0771117197244
79.0461109158381
79.0458184042814
79.0465651102823
79.0725366732443
79.0717706266214
79.0306994907391
79.0122059556584
79.0174613670158
78.987430312217
78.9571916518629
78.9610316253304
78.9977045852011
78.9939915738362
78.9836914675763
79.0052190714741
79.0443921494797
79.045213706456
79.0208168945209
79.0088547024886
78.9853909194252
78.9777406439985
78.9741719219208
78.9673795467514
78.9679123244687
78.9254364916332
78.9111559842282
78.9412894170791
78.9502804951592
78.9334591175274
78.9187831034826
78.8912082046874
78.8709830834156
78.8711134383617
78.8842776320718
78.8918652334599
78.888627961195
78.8861636164399
78.8985210803041
78.8771479998584
78.8618356192708
78.8766066439716
78.8855648801145
78.8696649035578
78.8898730221993
78.8733201250488
78.8406524046699
78.8295078512138
78.8315125974246
78.8195537885371
78.8100623772274
78.7862132606427
78.7860953711121
78.806086107443
78.8087273902016
78.7747969067584
78.746550578484
78.7471802871429
78.7520951258474
78.7400425335293
78.764588106112
78.7723209366002
78.7522577918081
78.7505719584533
78.7720723765792
78.7740611036963
78.7290162796305
78.7065251297582
78.7209687220954
78.6826672333008
78.6795997884259
78.7292812115962
78.7261443658112
78.6954645185569
78.705916579454
78.7018043925545
78.6837369417637
78.6716627192075
78.6481902498141
78.6186122664345
78.6245194698045
78.651453683486
78.6689755930403
78.650688465172
78.6294772006602
78.6307458126407
78.6339763357438
78.5954933369021
78.6087173287018
78.6383258079304
78.6102964186236
78.5626361229985
78.5492598437538
78.5504333342483
78.5644263851492
78.5668612074219
78.5565053823917
78.5453742557491
78.5341359240787
78.5400879930646
78.5625788564127
78.5612535410256
78.5407439242271
78.5405002260232
78.5492000371104
78.5198221698291
78.4836360155111
78.4998343361145
78.5217542093612
78.488454841087
78.4602136935013
78.4475518405896
78.415365705673
78.3949977347318
78.4141977781558
78.4743295310646
78.5202759722743
78.5244267734466
78.5156526395519
78.4847321272096
78.4545264177793
78.4422879679206
78.4233467693347
78.403756843624
78.4174026551394
78.4262936879987
78.4095501084054
78.3708553521098
78.3807188907545
78.3857179561113
78.3957215132101
78.4076030749333
78.3702331915435
78.3372750082572
78.3406683120868
78.3245846410983
78.2906084683939
78.3005129053783
78.3433653179801
78.3557446196408
78.3868866712593
78.4259730913022
78.4036862266237
78.331750287847
78.2875527565706
78.286768716117
78.3212843020181
78.3436454659218
78.3780176237614
78.3646651630932
78.3236958577172
78.3173794591379
78.3091337905203
78.2859342750851
78.269032733636
78.2751943442092
78.2898199526126
78.2854646215643
78.291525099409
78.275362056215
78.2353938636133
78.2360173161024
78.2358047775212
78.2087728086887
78.1935636379843
78.1785309415868
78.178847312066
78.1896192418691
78.1969714557941
78.2046864328007
78.2196807981686
78.1982578646162
78.1605012406186
78.1516923124525
78.1780474319361
78.1760696336041
78.144216209378
78.1448645225648
78.1816405132224
78.1853584616193
78.1839038971085
78.21083707165
78.2360758862216
78.2028491416147
78.1526851713749
78.1307904528716
78.1512459891399
78.152738718986
78.1112885762917
78.0818952678022
78.0983493955213
78.1128815979382
78.1108013610235
78.1174334962681
78.1424926078009
78.1610231904057
78.1671271490251
78.1438777346382
78.1202194600305
78.0964815672171
78.0553769140913
78.0340471440912
78.0523520091594
78.0463804191393
78.0353073523944
78.0530491317015
78.0589973631363
78.0321795239591
78.036008027132
78.0629134938957
78.07987415719
78.0658860250521
78.0296081533227
78.0043121774872
78.0060099887469
78.006919824143
77.9976233252728
78.0121860451547
78.0332872328629
78.0277243767613
78.0332368392362
78.0491019427551
78.062626078114
78.0267766972887
77.9963567148187
78.0026430683297
78.0135128863613
78.0311727228887
78.0399178802604
78.011285056241
78.0095620351402
78.0320012760295
78.046685403342
78.0224940521188
77.9965447845064
77.9796997751957
77.9524471390523
77.9538848221176
77.9821433852127
77.9659387476658
77.9384693575084
77.9193597767253
77.9182122704375
77.928490913064
77.9254261585843
77.8912247770951
77.8970310020614
77.9210034178467
77.9441166895291
77.9606365874443
77.9433702024414
77.9504575066413
77.9912801740829
78.0030543079504
77.9738652578606
77.9053101835376
77.8803758747445
77.9010276744002
77.9050232522102
77.8948828877545
77.8881301880689
77.8865574768189
77.8893335067202
77.8617663398655
77.8263342286425
77.8149739287024
77.8204064400731
77.8176143610602
77.8292066451839
77.8356416771657
77.8404515333912
77.8561424010604
77.8654445508385
77.8666596266936
77.8633687638444
77.8567538448034
77.86252592213
77.8339362151143
77.795907511567
77.7806642046339
77.7764159023853
77.7605203174272
77.7689222726442
77.7723981602404
77.7571264640324
77.7623633693009
77.7783032489119
77.7624916809385
77.7437546403708
77.7350660770464
77.7591870643467
77.7613025063029
77.7344787840113
77.7235272643985
77.7118360851893
77.6872899812355
77.6714989458911
77.6781594749243
77.6659211873075
77.6304695154554
77.6172031702823
77.5917192066751
77.5791753940404
77.5823662682592
77.5766836019148
77.5486625443571
77.5183000938756
77.5075546195844
77.4962954823188
77.473809350352
77.4503112106556
77.423509877219
77.407454099025
77.4071902755098
77.4228023793752
77.4394852370012
77.4395917559047
77.4230436043259
77.4140048691707
77.4009988686395
77.4010542450857
77.4056303933505
77.4212170943523
77.4274153774255
77.4400337154377
77.4579086458388
77.4283722110244
77.3760226911581
77.3427195597265
77.3135746637004
77.3085393813654
77.3022211814877
77.2784223705789
77.2486437474858
77.2288064085424
77.1958520343759
77.1608280328205
77.1304577216868
77.0874033826814
77.0601742550692
77.0626103028643
77.055314069791
77.0328944935823
77.0001810591039
76.9907122655424
76.9813727403909
76.9679785441454
76.955936312604
76.9343695629003
76.915774496026
76.9300775824234
76.9557069804307
76.9745515991256
76.9743949428565
76.9772152557529
77.0014971511978
77.0516165584721
77.0993305977986
77.1177933500121
77.1327407708201
77.1555437012543
77.1433294336506
77.1248560330538
77.1357155602446
77.1627996222115
77.1665798179684
77.1569917678111
77.1611965471065
77.1736625058462
77.1804933633379
77.1935487870704
77.1935102169433
77.1729668368228
77.1574705725111
77.1699929795058
77.1931407624294
77.2171138002369
77.2323849513216
77.2511353762795
77.2617357449705
77.2669577541709
77.2638939820274
77.2535540473268
77.2485913769148
77.2517600641623
77.259995908689
77.2591232525677
77.2409616970053
77.240943311946
77.2509829304251
77.2452919483404
77.223055164194
77.2198354346733
77.2210213795083
77.2125226616153
77.2044073502849
77.2000629748932
77.1723654161536
77.1666321273914
77.2172992798011
77.2583361800544
77.2550674551563
77.2546860300415
77.256107040575
77.2319953931803
77.2066251944237
77.2042104719175
77.2040413586324
77.1968483420241
77.1756753367691
77.1574499973005
77.1443728864008
77.1195832836114
77.1063363784844
77.1077206400546
77.0697981891129
77.0361716514762
77.0451156167259
77.0514336564283
77.0101249404854
76.9830149858855
76.9909016335579
76.9737491100436
76.9477698188942
76.9479187497648
76.9636223627427
76.9850520959282
76.9901513561833
77.0038278908814
77.0225995920689
77.0245424008981
77.0185705442595
77.0290124183525
77.0302916718089
77.0155089808317
77.0235344620948
77.0582192072616
77.0781698647214
77.095159008704
77.1111756465208
77.1299489145177
77.1416116148609
77.1381732257955
77.1415508519425
77.1711230367841
77.1766221917221
77.1562555394212
77.1537304813604
77.1466856875736
77.1341332388013
77.1549967821217
77.1586828538077
77.141705740453
77.144629693665
77.1441123298314
77.128617978026
77.1292255012964
77.1420729005033
77.1507832697294
77.1483106069041
77.1408025146418
77.1289745500321
77.1132055681574
77.093127031801
77.0772728842185
77.0768539238847
77.0927641949088
77.0968644929275
77.0996539092638
77.1039038797023
77.0985343580269
77.0803004572236
77.0822009779159
77.1055892847962
77.1094940880368
77.1025488499261
77.100840065693
77.0776427618784
77.0450878667954
77.0401683337074
77.054859359016
77.0577342007448
77.0553843994224
77.0609954416475
77.0751493784392
77.077230687149
77.0745380656968
77.0598233304164
77.0548077871431
77.0544420167877
77.0379698037639
77.0321314912088
77.0420249594414
77.041899663868
77.0389188823489
77.0252529492967
77.028521382073
77.033179913354
77.0283582525188
77.0116155852102
77.0087479723772
77.0167443990521
76.9963349669404
76.9725158738695
76.982866732277
76.9795059647174
76.9857961162735
76.9984804581687
77.0008533786291
77.0005165933312
76.9940640591745
76.9881316885626
76.9843762040616
76.9819085207083
76.9805165685637
76.9782166601925
76.977320297085
76.96069656107
76.9450754387585
76.9321991583975
76.9199046397505
76.9181742019396
76.9243815023667
76.9110770393632
76.9195285982527
76.9318468456358
76.919773850065
76.9210047858611
76.9142946707817
76.8855727833178
76.8805270091549
76.8989431734844
76.9146446437355
76.9134587004795
76.9129147850932
76.9160057190183
76.9190437825849
76.9211679473325
76.913151364712
76.8851628702085
76.8737081362983
76.8940796365077
76.9138526674582
76.8895264115177
76.8614791771989
76.8553784191296
76.8584475209064
76.863562131466
76.8793109024852
76.882426358957
76.8654718099196
76.8438149209974
76.8420598296587
76.8455689988345
76.8349138351648
76.8153978283988
76.8180629944758
76.8303792638686
76.8376600592111
76.8420832050804
76.8435210218375
76.8448912365686
76.8443817049513
76.8284146195474
76.8266356468756
76.8214729718516
76.8115089030104
76.8063708259871
76.8156930512609
76.8211332312081
76.8087352523297
76.7915271372125
76.7845668511875
76.7815459303127
76.7866377822657
76.7921869482577
76.7979020810333
76.8001927078061
76.8000776388776
76.7971374359932
76.7935694029202
76.7917642263524
76.7991513613758
76.7831448813064
76.7711592314188
76.7678995020709
76.755124135294
76.7610348049991
76.7726661165426
76.7699475993982
76.7566522928089
76.7503052184823
76.7482337266728
76.7385607280312
76.7379669362068
76.7502313081588
76.7480621358748
76.7420012718359
76.7455961857299
76.7384459715488
76.7314565665398
76.7266127764335
76.7112755692413
76.6990012259057
76.6919832123038
76.7038477219201
76.7287804276548
76.7292430189625
76.7182230482093
76.7355676516608
76.7550103193911
76.7328239040633
76.7047417964581
76.7103380653715
76.7289490365016
76.7336875071657
76.7109201560899
76.7044018216953
76.7325096965358
76.7273042874508
76.6948907403455
76.6789233790222
76.6934559427519
76.7032136593174
76.6881992281209
76.671712057795
76.6685312812486
76.6693789575578
76.6667882077586
76.6585900165674
76.6582480749857
76.6616899174209
76.6575455340119
76.6629242909921
76.6832544846816
76.6936815753165
76.7141012947774
76.7293849717298
76.7260798236376
76.7193103677345
76.72806732566
76.7173435699344
76.7067278678827
76.7186851099356
76.7305696137184
76.7493484372761
76.7674785281199
76.7770484237575
76.7767994527977
76.7909644088555
76.8081553317717
76.8062253510432
76.8172965410813
76.8393686283574
76.8632736718331
76.8615806432319
76.8726063702401
76.8888296529268
76.8913309883332
76.896094855029
76.9016709724933
76.8847469450513
76.8900452089187
76.9240520129867
76.9510285801753
76.9691594626259
76.9848907662075
76.9931157104192
77.001701430283
76.9989739991982
77.0021323170677
77.0162523161401
77.0370225176468
77.0302876519849
77.0279342784142
77.0479204090289
77.0741814480335
77.0850239666142
77.0945393932615
77.0767444978972
77.0443085605242
77.0662468574424
77.1084673246495
77.1011945731578
77.1259187284853
77.1713325452588
77.1728301615366
77.176500582332
77.1851317247352
77.1934952109551
77.2158401043277
77.2064050054006
77.197058279757
77.1979910572695
77.2200188241651
77.2337990083081
77.2348644285541
77.2716126476126
77.3149206559443
77.3072737774304
77.2824776416471
77.2966146517958
77.3170012643302
77.3039858083269
77.3066976407425
77.3186894965906
77.3460646102998
77.3564898194239
77.3607571399531
77.3525021185481
77.354391969839
77.3617636505098
77.3732916496603
77.379462300431
77.3877262213216
77.4173569076577
77.4120869070136
77.4193543582472
77.4370454888341
77.4249656951376
77.4452415156487
77.4636119989499
77.4379611724939
77.4284695222667
77.4375898556951
77.4564182290774
77.4550936888038
77.4541657437038
77.4580609078776
77.4490000565272
77.4746068969702
77.4999163636559
77.5111978942811
77.5114521810205
77.5066085748785
77.5137257987656
77.5453867658525
77.5337015364495
77.5108987758031
77.5371627421584
77.5375959695614
77.5307406774964
77.5522670163894
77.5399642677408
77.5201810140667
77.5471313105542
77.5807841177125
77.5763991288156
77.57145406716
77.5256839809535
77.5166866599268
77.5736509832476
77.6192382380084
77.6061755928911
77.5817431931817
77.5767473660634
77.551713337508
77.5538747815938
77.6077210235152
77.6278181002101
77.6346314235295
77.6240275163785
77.596204668689
77.6071364755968
77.5958364428003
77.564603948568
77.589187800879
77.5975690175947
77.5794786934342
77.6025873317526
77.6280000728114
77.6277603770696
77.6423031544566
77.6358951001754
77.5910990586107
77.5864350718123
77.6032935386806
77.5969820573008
77.6146863421202
77.6057957361232
77.583515220833
77.5813210578672
77.6144294502404
77.6094264677371
77.5984691209537
77.6102460282912
77.5956757153156
77.5715787011825
77.587842602693
77.6148439393282
77.5947762925699
77.5753830743071
77.5896611868957
77.5973369724635
77.5773126792091
77.5647327426802
77.5844326112844
77.5917357243542
77.5810491967649
77.570079657332
77.5703878281201
77.580081427125
77.5665089839169
77.5208764141905
77.5474162981673
77.5644334040379
77.5885127612971
77.6145692622057
77.6146032750761
77.6097865574412
77.5826021172437
77.5476536949018
77.5742648475752
77.5818770890353
77.5657022050231
77.5581836412977
77.5663738690676
77.5495378880224
77.5449954728056
77.5544555815648
77.5596748979948
77.5282295645044
77.5135936815059
77.5075734201744
77.5109539740092
77.52815976361
77.5634260536881
77.5629929224606
77.5309725150084
77.5097839316115
77.5042158126094
77.5099316228937
77.4927768401267
77.4866522151725
77.4824941869116
77.4683185430894
77.4736082137926
77.4810555947646
77.4600152538877
77.4359038228287
77.4415603745084
77.4379357880662
77.4524140875559
77.4656213611334
77.4559033748732
77.4545488555112
77.4632858028424
77.4433682401557
77.4392886045316
77.4550414889376
77.4609925289678
77.4703136561211
77.4831504421852
77.4781035533437
77.4793067479856
77.4739292720135
77.4609474261095
77.4385213959728
77.4572634415057
77.46518373846
77.4614418491602
77.4939336322339
77.5129709637001
77.5040352789056
77.4861327915842
77.4755085871352
77.4964460675311
77.4803268927517
77.4539228926595
77.4430659537676
77.4532732391978
77.4464404119307
77.4160457669636
77.4110003181592
77.4127414394661
77.4078769461339
77.4192357487113
77.4414882563824
77.4611246715793
77.4476122432776
77.4062445431907
77.3924062563425
77.4344699438565
77.4316718842074
77.377302212583
77.3503841790604
77.3848079282346
77.3940837449126
77.3820067938951
77.3790531429513
77.3652275277169
77.3589947779892
77.3509379372022
77.3298421798388
77.3231480849256
77.3026569812605
77.2931689206292
77.2939715860804
77.3091182619262
77.3110621225248
77.3073517954351
77.3012897210347
77.2767176575195
77.2633705669711
77.2854293085071
77.2807702975173
77.2530645747504
77.2130760747257
77.2163639700827
77.2339323867832
77.2222257193048
77.189482880354
77.1903944431486
77.1935019804192
77.1857718732795
77.1657270133127
77.1647461091438
77.1702869679361
77.1475121089381
77.1412565947861
77.1565892271051
77.1203346056352
77.0835750182222
77.0745066867346
77.0656725783737
77.0536728571967
77.0596675385618
77.0623684502082
77.0766568790771
77.0953600013811
77.1191563439167
77.1144463414458
77.1111895783116
77.1140469501389
77.1549712067838
77.1614007503441
77.1379124354338
77.1444417830269
77.1845017739868
77.2116580345954
77.2429393139031
77.2480163827693
77.244023993634
77.2069523725571
77.1959166304146
77.192315619441
77.1759087212473
77.1034597350461
77.0825845155474
77.0610295467254
77.0209012399428
77.0050560650362
76.9762842264814
76.892832798897
76.8578896337026
76.8408050313302
76.8033724051968
76.7219556572888
76.6819009491089
76.669722535623
76.5980753715152
76.4828643723155
76.4265339725228
76.4624416334813
76.574077228459
76.6402006323354
76.7413795114155
76.8073948691099
76.9049130539862
76.9039128605516
76.9120587142182
76.8930127148677
76.9225782675273
76.897417312411
76.8806161079678
76.8220202468015
76.8340286259585
76.7786377415851
76.8067425512014
76.766187799674
76.7884501041443
76.7233632418074
76.7750054236593
76.7285200596554
76.7532660676296
76.6599960862674
76.7020317978223
76.6205657628996
76.6141003422858
76.5474633781105
76.6269164178259
76.6132334498439
76.752510695978
76.7778551702612
76.8423151652046
76.8658111720042
76.9007438939357
76.9056077917
76.897187736775
76.9837267465862
76.9893769295513
77.0516193037384
76.9886918932815
77.0555537871325
77.0311082076254
77.096783696443
77.0975141467896
77.1593899248228
77.1821468074269
77.1814200613892
77.1964806125647
77.2089862742767
77.2295791495188
77.2742860293272
77.3078632576601
77.3146231785267
77.3044212453809
77.360026014116
77.4040600196505
77.4381972706456
77.4536734631836
77.5029833210248
77.5112236248227
77.5270550044387
77.5530324970317
77.5843032532574
77.6180605148505
77.7095398880472
77.7795374340144
77.7674777570897
77.7577846591281
77.8379271061493
77.8927313021193
77.9738559833055
78.0336560869637
78.0869601543459
78.1231288643307
78.1977681330474
78.2468919302614
78.3212434953203
78.4029238084924
78.4398999035704
78.4449070749965
78.4844259098847
78.5287020708309
78.6158031540194
78.6627203801665
78.6745907986712
78.7050904309526
78.7152909162964
78.7255754821624
78.8375204002071
78.9012387300057
78.9428125786074
78.9487239299491
78.9491617338865
78.9987392738861
79.0437225638901
79.0367288041548
79.0306333186512
79.085186706114
79.2075576434381
79.253435380699
79.2781044920042
79.3137819206501
79.3481967109621
79.3792761218422
79.4296309913639
79.4304642471688
79.4556115040289
79.5234050695642
79.5789856085106
79.5483250151112
79.6000492020673
79.6239811300314
79.6219982114896
79.6917612862797
79.7270187007148
79.722695700055
79.7617630660601
79.8162873210188
79.9059088032342
79.9253389144151
79.9629445038283
79.9892289027914
80.0459856801923
80.0884084283342
80.0977229016099
80.1315369766205
80.2050163773668
80.3155505111054
80.3493933557855
80.3541490874921
80.4214604047346
80.4571734429352
80.5249696961406
80.5485260648053
80.496394980867
80.4864201601318
80.6060363750657
80.7012767074749
80.7802002548762
80.8389301427116
80.8923357792012
80.9116679856664
80.8746311761285
80.895751323885
80.9013779759367
80.902280971285
80.9492607868689
81.0174568667226
81.0801335588522
81.1297434544746
81.1869170329494
81.260994504943
81.3402955207807
81.2859235435618
81.220353683664
81.3211085473105
81.4316206180907
81.492787847098
81.5592736527846
81.5778223893368
81.5745578880011
81.6420276043768
81.635467588545
81.5981978920729
81.7550329185565
81.8407763165981
81.8510277738573
81.919541185252
82.0423163976685
82.0719561385071
82.0104212366602
82.0353537328365
82.198880298936
82.3234944908248
82.3986866384405
82.4550873629468
82.5501557682274
82.6633967959077
82.7449986708329
82.7944367885714
82.9271550390147
82.8992170799587
82.8095957977816
82.8358259978388
82.9319646803643
82.9749776913396
83.0757089747036
83.1573581300176
83.0074665173036
82.9110992277882
82.9832279573353
83.0146273394146
83.002260010431
83.0796376937545
83.200522370777
83.3569499170351
83.5536790323484
83.733449672621
83.9506661775776
84.1369901669562
84.198443946841
84.405716890659
84.7611812202644
85.1290120691353
85.4220321465789
85.3740391819365
85.1757250383728
84.8044289170309
84.2984290648992
83.9902508629373
83.6338707716371
83.3519430809675
83.2143180342488
83.0347593605436
82.8741181732385
82.7704337000677
82.5933250259734
82.4390393778429
82.3696910306862
82.256838133762
82.0657197722168
81.8934049270363
81.8025060449779
81.7354731266903
81.6160562158932
81.4024662106678
81.2459835460767
81.2262946798292
81.1271404046538
80.9288658691374
80.8744896622083
80.8205977320179
80.5692659018327
80.3489318925165
80.2005334441839
80.0500378714707
80.0240403956481
79.9482711192944
79.7974975673829
79.7463054917012
79.7367425916051
79.6004080373519
79.5201281048819
79.4858820911894
79.470237894292
79.4341382071882
79.3913867819831
79.369550076047
79.317829113301
79.2797086445814
79.3089116793702
79.3276954244128
79.3092660779013
79.3013622704594
79.2985418878535
79.3216350158803
79.3834042596133
79.4365150069331
79.3851375885505
79.3182443155626
79.3597752999286
79.435359168066
79.4906811175755
79.4584838845096
79.4673718999939
79.5034421010675
79.5216513464465
79.5457361448088
79.5753891978539
79.5765299071715
79.5496428787229
79.5825590101348
79.6476692337916
79.6545409327645
79.6267527912293
79.5901689640922
79.5396790181906
79.4883664770257
79.4026722815442
79.3559730092633
79.4076001137924
79.40257070876
79.3957916009003
79.4618208808259
79.5460908693355
79.6457572969216
79.7099048188513
79.6549311411019
79.6581990296049
79.7060557242894
79.7337226549264
79.7856372801115
79.8269577967568
79.8464071563951
79.9243421764985
80.0382259045174
80.0943754428661
80.0558950043988
80.0479100867764
80.125362212055
80.2049118962441
80.2316813028319
80.2857134882043
80.3891019537655
80.4932177081003
80.4669604004161
80.4166800913667
80.4802614945545
80.5017829936988
80.5196270515391
80.5973879359859
80.6225741118821
80.694695047594
80.7290356042314
80.7699844745537
80.8297431074044
80.9574364992919
81.076733670228
81.1017415633101
81.1288882476365
81.3170636447892
81.5914413478172
81.873574837012
82.0692999260575
82.1370697427745
82.1664621850237
82.2646122084567
82.4033591621375
82.5938988771322
82.689031953706
82.8050851295166
82.8937875178954
82.8909709137233
82.9498560181039
83.1218018183954
83.2509854103435
83.3954426307482
83.6193451258857
83.7267055295035
83.7300880794693
83.7017483068547
83.7383821950546
83.8235085081352
83.8503408677562
83.8665118269772
83.800967442821
83.723162282173
83.7893988952952
83.811721939304
83.7657536797576
83.7795312108271
83.7243561521789
83.7301167041052
83.8158569552147
83.7621072934163
83.6417213863301
83.6819918694061
83.5590336136449
83.4690629555454
83.4404117124945
83.3142471945386
83.347051371295
83.360100016124
83.3712151682016
83.47524771736
83.4609729719876
83.4614664879712
83.4894362233658
83.3882449462492
83.1585178768388
82.9834660493358
82.7933628477643
82.663986966412
82.6746898065797
82.6381439632751
82.4898129359975
82.3328500887577
82.283563976371
82.3232959934786
82.3145451003703
82.305326071799
82.3839335928039
82.4917150626911
82.5044985822523
82.3165095004734
82.2004336639297
82.3182284528711
82.293389358685
82.1964288296076
82.2532573390429
82.3610052251251
82.449858116165
82.5695797194057
82.6291388959746
82.6961022690103
82.8791711424329
83.1522939646894
83.2937850574772
83.56912075709
83.8558121029852
83.9104880885102
83.7909407996018
83.7343777597399
83.6527739321322
83.5086075642307
83.3199960135344
83.231101870979
83.2293889506329
83.2924753462052
83.3029859976429
83.1463898791035
82.8295481099099
82.6598098149884
82.67913699181
82.5962737488082
82.3898567276488
82.2445585819002
82.2669032101663
82.2788409250433
82.047471325484
81.8329008464801
81.6748533562656
81.5160365561518
81.4005296637846
81.3565315783125
81.286518509236
81.1731970693709
81.0690150760148
81.0350842421025
80.9469648218107
80.8523552218428
80.7497609291784
80.6617416268379
80.5742409530463
80.6278793592236
80.8694603782431
80.8002377624368
80.3615925397734
80.1475578747071
80.1058098465518
80.0770867653936
80.0581065610315
80.0560928407175
79.9809328387764
79.9006532543254
79.8947917089495
79.8096623056498
79.6533230374913
79.6493674034402
79.6874316813159
79.6382598863078
79.5483391393558
79.441790517421
79.3920680836392
79.3892136737372
79.4389578440237
79.5659719064476
79.5408291856545
79.301955715529
79.0980436373827
79.0509346440634
79.25519448266
79.450757833801
79.1986391342813
78.933736844639
78.8858698946025
78.8589291267486
78.8243769253722
78.7884892920152
78.8120523007841
78.9263622160266
78.928943527615
78.8584857953707
78.8033916336719
78.7588040733816
78.6932315851193
78.6993980811781
78.7153937085184
78.6682613575879
78.6029379055619
78.605236689868
78.585039989992
78.5451096447914
78.5543344742033
78.5655289354432
78.5908737321065
78.6465402904108
78.6078790056017
78.5035514943749
78.397165848501
78.3525464557295
78.4194612862573
78.622441832978
78.6212469719334
78.4008738818065
78.2540534870808
78.2513527244443
78.2597321288412
78.2635073686453
78.251378342959
78.2437920804476
78.206007583531
78.2004556730701
78.1986355546638
78.2142154921447
78.1949830410824
78.1443181501185
78.1240055865172
78.1482797449002
78.1324374450219
78.1119893887899
78.1054130983715
78.1047860207147
78.2050830745663
78.4553270775735
78.4995582651922
78.2618173564097
78.0776649330556
77.9308443282672
77.8012634245504
77.7877454906692
77.808410458116
77.8535330937532
77.892692575626
77.9152872790436
77.9050688349634
77.9134839887296
77.8951990363068
77.8790456752442
77.8642672285224
77.8554464241303
77.8441185773096
77.8637081986125
77.8539300633965
77.8444336666594
77.8171627669775
77.8827570030368
77.9542813544132
77.8931313642684
77.7538145387114
77.9723452585656
78.4189663050837
78.2286388837509
77.7609630141949
77.5725496134228
77.4948738229335
77.4858509036032
77.5338874197411
77.6090855696458
77.6705445880759
77.6498409869134
77.5951122006396
77.6326630611577
77.671145209244
77.6084512448823
77.6575338546124
77.9941145657777
78.151478084259
77.8271678491459
77.4936778179316
77.4677971955453
77.7432640351199
77.8178205633694
77.5764049068094
77.4564996268585
77.4381812943374
77.4217409593944
77.4260676568542
77.4532504147271
77.5321702397161
77.615624964452
77.5761149495762
77.5078367818975
77.4615373622217
77.4612964809905
77.4676974500976
77.5294351761933
77.6267180326405
77.5472610954792
77.394450371696
77.369733782898
77.3572769649815
77.3268252874089
77.3037211637564
77.2894015667248
77.3636644774752
77.5255135974352
77.5426870386001
77.5439561148795
77.6011389416479
77.4678816300047
77.2505887656037
77.2390330786422
77.3525808339742
77.295863740253
77.2697348456653
77.6370030512813
77.8897551021762
77.7430460759383
77.4282617523258
77.2057920134902
77.0766148049897
77.0671582943267
77.0901665337222
77.2551199673295
77.4220401602751
77.3928673762806
77.2782715365145
77.3199688103817
77.4905024258775
77.4914895335221
77.3570320504087
77.2505483094475
77.1925507920091
77.2893918677356
77.384310968602
77.2957685339608
77.4960205460646
78.0044004263518
78.1139977348532
77.6228568181106
77.1167836536062
77.1587722539084
77.3683701554372
77.1730728239438
76.9490215759736
76.9487123109783
76.9999992317763
77.0501759769101
77.3976162675608
77.6773693975112
77.3739913390024
77.115036251756
77.0304691313572
77.1418522210583
77.3420657295867
77.1832215427111
76.9263892247168
76.8517726598003
76.8061017602934
77.0538830987037
77.5027987082825
77.2757658671802
77.0588028628758
77.0068481381246
76.8181006658123
76.509391409791
76.2605816612477
76.1631765128715
76.3127833359179
76.3483518703121
76.0955813816551
76.0504566397594
76.4776091246477
76.4384550661191
75.9782660065577
75.7144772532481
75.5998320859302
75.8498243447377
76.7581418658424
77.2138760990126
76.2004728492855
75.3098722859638
75.2058384637224
75.3229758594192
75.0939778963198
74.901273175095
74.884980917616
74.8953506350658
74.8780168971054
74.9635638207895
75.0496246943474
74.9984866183234
74.9174693108011
74.8207874412171
74.9582686243974
75.5785483936875
76.3154453778872
75.837656391504
75.2181567921821
75.17160737006
74.8954115470171
74.4557012168126
74.247049046708
74.3106063588673
74.4960595936891
74.5804651457808
74.5351156794815
74.7151248832414
75.1325532302884
75.2359037124335
75.2448118590442
75.0703788401828
74.7394441661718
74.7438118960969
75.7548995559919
77.1239166423187
75.9426346941868
74.8729372308792
74.7061908095699
75.4341511056141
75.9076984358443
75.0657229704173
74.6304630227044
74.6644996115784
74.7565504103143
74.9750626115653
75.2071846305742
75.4004801699859
75.5218024753505
75.4191126771998
75.5264271454429
76.4151403223479
77.6667402689187
77.3493113915948
75.9326213104763
75.3555670663243
75.4538247886814
75.4901289728585
75.4192954678838
75.4736791532718
75.6427303213391
76.3740009588531
76.8977565979754
76.3345904262773
75.937938261397
76.1465678835682
76.3112879584668
76.3845969122786
76.9102651349996
76.8146168264642
76.2422671271811
75.9561750950537
75.9803955758953
76.0102315188345
76.303556388222
76.8364962702445
76.8209762406747
76.516587705641
76.3794028371134
76.3520276271253
76.3627334697179
76.4163092268105
76.4636066512974
76.764652668001
77.6035858835328
79.1565518576907
80.1972505844926
77.8972763053494
76.3576349719054
75.9100731204113
76.110962097538
76.6055242892757
77.0711125144814
77.4815544055977
76.9789469448353
76.3597055929154
76.1788359166943
76.2072972582674
76.2783300333869
76.4116742992978
76.4932768510129
76.6599216493942
76.9787010056032
77.1884645251757
78.0813567024554
78.2827236694175
76.9150429586088
76.1580662407864
75.98887478011
75.9560302865084
75.9949367985972
76.0740264760149
76.4424086954464
76.6370002791865
76.3575697330192
76.0986377566611
76.1612289139682
76.6765385536528
76.6366323512139
76.0409360572944
75.7129589674693
75.6042411044816
75.5332091633439
75.6168490525304
76.4551752868563
76.960987383046
76.0518595679399
75.44704240196
75.2592063497561
75.2152459038398
75.2407601837874
75.3471385586762
75.5750343119111
75.6522230652069
75.6409280443059
75.7005479072613
75.6781601945668
75.6423806041069
75.6839853594958
75.8033703880841
75.8546999044083
75.8908586937204
75.8987632710735
75.9369683691277
75.9888067596803
76.0435542271753
76.1274930678742
76.1994173993376
76.2964919538981
76.3601962129889
76.3515384004409
76.3846914921559
76.4182048969423
76.4756556384504
76.5181356271362
76.5562342709027
76.5857269135927
76.6230059097123
76.6570390254016
76.7004348155327
76.7209741134066
76.7512319172207
76.7721112554759
76.797832361878
76.8102943603309
76.8160362395987
76.8582109821917
77.2998077237849
78.2624324244922
77.8769969341175
76.9359319670037
76.5674956308993
76.5009616963761
76.516565958277
76.8530902986133
77.6651397735404
77.6318341019755
76.9987852168861
76.6998205260657
76.7227007164056
76.9920472313135
77.0066748589217
76.8449854321534
76.8060764332366
77.048448674749
78.131731574698
79.4686882488333
80.4696150693249
79.4547630808437
76.9871128970821
76.0610257919373
76.413974210205
76.6997313517951
76.3215838883368
76.2183630641692
76.4101007768975
76.9159212750516
76.8898377564832
76.5825942099458
76.4722937690328
76.5634518674971
77.0656421785818
77.282861008605
77.0368957865412
77.3280269175655
77.5737096294537
77.4247209388495
78.0460999133689
78.3194635788462
76.6196991810114
75.5827328048945
75.4844884089767
75.6325199188275
76.2109415916811
76.9542319759287
76.6990377327325
76.3789919068488
76.1325783587538
76.0949977962206
76.3552403304525
76.6945109001133
76.7401686640616
76.9652064934423
77.1359363597263
76.6687054896509
76.7355699032256
77.2140769484793
77.8357484305754
77.617649211462
76.5239207011966
76.0850209522236
76.6399916842791
76.9773837617796
76.5954425783843
76.3879170342019
76.1817459007476
76.3675817643123
76.6635255502553
76.5505212400223
76.7610678604939
77.0774568958784
77.493195789038
78.3600151280335
79.1882114246054
78.2099086590473
76.6005050737221
76.0339428563145
76.1202433892829
76.3902973746545
76.5954010848007
76.8392808052438
77.4386783075705
77.3944229239463
77.4052569772056
77.8485309385791
77.3755299490062
76.8846882626085
76.8133894730613
76.8586864194239
77.1777803883254
77.8115601522529
78.122452893708
77.6211259418355
77.4253473243997
77.377107492668
77.0478163111726
76.9001556254036
76.9443084769925
77.0479279150924
77.185010187341
77.3935004203982
77.385563022531
77.2827430665591
77.2440360288773
77.27622894523
77.6861573306956
77.7162357378996
77.3188058491959
77.6037003398538
77.9612241669761
77.9824359460366
77.1036302821416
76.4300799702225
76.2495563464273
76.2486525917019
76.3400988495017
76.440036109353
76.9328617832119
77.2634845043705
76.7003879655602
76.3454354288421
76.2160271374162
76.16527017797
76.3109283865955
76.7966439544023
77.2776656229278
78.0411714987341
77.5843120939792
76.2355083641946
75.5165854574001
75.253092456162
75.3810787095236
75.5332051789181
75.5937757598652
75.6354730006319
75.8962497690402
76.2565275555017
76.0241180460544
75.8041058402888
75.7790882550359
75.8147266545455
75.8922657215825
76.0150421088621
76.1363711727218
76.2451494432716
76.3462261790897
76.4408190447649
76.955212060936
77.85659937594
77.315015039363
76.6602643780254
76.5503794262281
76.6204448816004
76.6871604060177
76.8783343217026
77.2847760260688
77.3222203419572
77.1451957035426
77.1094097746356
77.1112577657187
77.1667162524941
77.4037285860114
77.6275046143896
77.3876111679028
77.2780425644421
77.3021842864985
77.9673940510151
78.377194593524
77.7660551272063
77.3931117626411
77.0830755089994
76.9534297255231
76.9813091435589
77.09087027328
77.214191209617
77.3173668255362
77.3225510474894
77.3225394371151
77.2763295195311
77.2537438377863
77.2393570985257
77.3509960156076
77.5916379390253
77.3896363366372
77.1215803679262
77.0344456314899
76.977905746178
77.0458216326934
77.4017362000396
77.4204798468284
77.0800910073871
76.8885755076037
76.9825411990119
77.2130613979081
76.9420357612767
76.5185176161356
76.4060513191621
76.4029256258352
76.4406363761701
76.4590806022907
76.6934157086915
76.9851170837425
76.6874421067411
76.3474030274135
76.1960140883586
76.1588375111287
76.1795845749216
76.227399991719
76.2341649488423
76.2483438984424
76.2273317472996
76.222607043755
76.1379354592031
76.1255444290027
76.2705774952506
76.4278391785155
76.3210013506143
76.0142662553661
75.864954058375
75.8100468603206
75.8645793773926
76.0158361957725
75.9888822614664
75.8936872254964
75.8544054925373
75.8314504960983
75.958863226899
76.2904074843735
76.1370457683784
75.964350860975
75.79167385736
75.6021516855144
75.5733785507024
75.5995826875889
75.623869607758
75.6698587992938
75.7275537035414
75.6734878901893
75.622418645323
75.6173532465051
75.6187543960196
75.6320807192076
75.654665220072
75.6333516885521
75.6161965760431
75.6191286500541
75.6146945029083
75.6278849462773
75.631621128561
75.6209401430701
75.6175442025992
75.785070493258
75.9237732780025
75.8804829702896
75.6816757713347
75.5444774564091
75.5107950021023
75.4221654565357
75.4479548572326
75.482314700158
75.528163075822
75.5590109176343
75.6040774500571
75.6172570702295
75.6302827778442
75.6383376316307
75.6534486560049
75.6655070515003
75.6904323150841
75.7089204269828
75.739593323052
75.7518996155242
75.8011862387715
75.8600507247228
75.9489970017506
75.9646025195079
75.9417978990645
75.9637317415519
75.9607981356067
76.0226986054703
76.1007247423871
76.1838339307938
76.2291492586254
76.2474047980685
76.2964091598671
76.3719155157521
76.4717142774244
76.5317213636059
76.5795405417624
76.6420645998989
76.7107059195869
76.7739663197626
76.8454309148557
76.9119202953835
76.9720449457524
77.0263968668086
77.0763328559157
77.134997862727
77.203372167531
77.2556660220265
77.2913222357534
77.3240900574372
77.3629611922505
77.4124920283809
77.4595812924193
77.4994964116649
77.5239349737472
77.5530595680512
77.5889402889504
77.599651033843
77.6018852668776
77.610185786796
77.6311618776721
77.6510094321573
77.6607044453153
77.669556440567
77.6825888303668
77.6808534933187
77.675415878004
77.6682306743327
77.6674887536193
77.6794128124091
77.6716994745911
77.6549149757789
77.6494065881406
77.6605402915736
77.6307481353771
77.6016323897502
77.5858533710544
77.5617037558773
77.546025344123
77.5403009501393
77.5199161291453
77.4967634036457
77.4822641570047
77.4530580745013
77.426065344997
77.4195589923304
77.3958751927636
77.3337978507906
77.3019672996461
77.273194705581
77.2357662087841
77.1980249418714
77.1628976038364
77.1175910708083
77.0717838397013
77.0215771494129
76.9707732628077
76.9151342636521
76.8774226218197
76.8362178340695
76.7825127314237
76.7232049323859
76.6747954652927
76.6267308420791
76.5608322311716
76.4969543085245
76.4351706839298
76.368812700105
76.3198111813814
76.2715727016544
76.210636309547
76.1551110739187
76.1045352146597
76.0518913382314
75.9985816186369
75.9510780679238
75.9107912329421
75.8710999982274
75.8409056264734
75.8042375259526
75.7665485987849
75.7450242019149
75.7312153276034
75.7150707799296
75.7000420886265
75.6805871831159
75.66983851148
75.6625260388675
75.652825805046
75.6420930550011
75.6438119203359
75.6473034499092
75.6403705324535
75.6370419330537
75.6524142665946
75.6738020372965
75.6994217384725
75.7223066330644
75.7359500042313
75.7576769590563
75.7843918851944
75.7993854753564
75.8256557784232
75.8556795763446
75.8856630179313
75.9202797378593
75.962532741278
75.9986537503874
76.0300855132268
76.0741951144551
76.1231570125131
76.1685816405253
76.215426047007
76.2672989236161
76.3273369670427
76.3820386547181
76.4329720666182
76.4852260900486
76.5382458120141
76.588360399716
76.6493167617808
76.7154686739801
76.7719035211985
76.826215390767
76.8811725813151
76.9364685995052
76.9831245906193
77.0290721370565
77.0772264545329
77.1234591617243
77.1713523899069
77.2236792965482
77.2716106844246
77.3177047192711
77.3611152973802
77.4050340283138
77.4541189515457
77.5054934667297
77.5469112193425
77.5759365511144
77.6121734892616
77.6493483527867
77.6853586247187
77.7185511468068
77.758697172838
77.8090954131395
77.8484390293793
77.8843828620078
77.9354817614498
77.9823498565294
78.0200128718462
78.0617356207752
78.0998675039698
78.1432667058993
78.1974959032558
78.2399104349993
78.2774234726177
78.3277026957647
78.3774152563908
78.417882693582
78.4622902218072
78.5055355240621
78.5357734074409
78.5645409561002
78.610016140367
78.6468476449715
78.6708367780746
78.6915389253149
78.7258939712025
78.7517914712591
78.7827834592872
78.8129306208325
78.8346143830889
78.8620073513358
78.8868052037869
78.9083237002275
78.9326712405821
78.9585576317888
78.9803981074674
78.9929918436348
79.0120355183641
79.0382575139344
79.0517849273319
79.0561162935597
79.06206418095
79.0825633271884
79.092051410935
79.0970259091591
79.1109744856383
79.1151356946687
79.1088249741484
79.1054490223913
79.1069841094789
79.1074699213995
79.1057858600824
79.0987894122285
79.0884290817423
79.0784158349183
79.0677869331928
79.0554064921187
79.0459767090837
79.0487229845542
79.0453053732123
79.035023438408
79.0239936462389
79.0162688895434
78.9959974717852
78.9778557032591
78.9679817799733
78.9608106076191
78.9413089033515
78.9110663486642
78.9013885674894
78.8853194288066
78.8529737401705
78.8334329474623
78.8167025085078
78.7929091594939
78.7699322653082
78.7461504874067
78.7209330850876
78.7038103130409
78.6938378486356
78.6849641765277
78.6654803338412
78.6634372258151
78.6635429444859
78.6685436533172
78.6742169629419
78.6651972223332
78.6717260873436
78.6954498167231
78.7063363357628
78.7282028004228
78.7571651657452
78.7775345270982
78.7998346103693
78.8214102697995
78.8437351218059
78.8712871643969
78.904788103693
78.9366152248916
78.9615004893851
78.9829693591302
79.0096988868653
79.0370969965817
79.0680567215635
79.0892521154582
79.1064941688734
79.1169994379724
79.1240340220195
79.1338254296466
79.1548998557375
79.1690586511476
79.1637413110067
79.1556089128383
79.1653369232855
79.17444775998
79.1762370005303
79.1771261827978
79.186397261164
79.1831004575555
79.1760999508281
79.1816910676088
79.1735884533575
79.1569400717722
79.1551014795877
79.16467597671
79.1519600572007
79.1265279321195
79.1024392564488
79.0775891785947
79.051562011822
79.0129826295024
78.9733475894777
78.9358540646259
78.8793996977549
78.8315045469955
78.8047195149662
78.7652494522702
78.7274993974862
78.698411231295
78.6757636896587
78.6603921672939
78.6461603560675
78.6405174402518
78.6425691967187
78.6447065696416
78.6618750857352
78.6930748998448
78.7207045261107
78.7421235319005
78.7782209888905
78.8251862604208
78.8727610120825
78.9069997533236
78.9469952746719
79.0029068555791
79.0564843097003
79.1118205207768
79.164214246799
79.2069849378525
79.2433045079513
79.2843488777026
79.3398884474811
79.3991227822798
79.4469198334386
79.4854431022618
79.5213863548239
79.5663911965217
79.6134972318444
79.6548811476361
79.6949925310756
79.7394576716075
79.7882411931441
79.8399839363602
79.8791846530719
79.9154242501063
79.9520110200012
79.983470969644
80.0171060041835
80.0544644287106
80.09737085499
80.1339192628474
80.1502954773195
80.176254949949
80.2160774337759
80.2586868357993
80.2866382342754
80.3132158576972
80.3492399753983
80.3906853351695
80.4297990805352
80.4587712243319
80.4704810553505
80.5004175701254
80.5462358983521
80.5746029906351
80.605396443462
80.6278676174253
80.6570529212547
80.6929633600924
80.702133970643
80.7155386553645
80.7400892519524
80.7606156446777
80.7756894835533
80.7931799271658
80.802220918611
80.7978270998864
80.8090858162697
80.8248287539551
80.8136366474287
80.8239165276967
80.8312351185638
80.8307745194903
80.8313284209981
80.8326546191791
80.8421527688864
80.8504174558424
80.857326772844
80.8515119533629
80.8393221094741
80.8384140976302
80.854326920696
80.8625422421158
80.8530447280108
80.8344695869871
80.8272183073293
80.8305516569924
80.8323534585609
80.8371976284805
80.8400977116395
80.8401239207971
80.8309821573167
80.8337051746629
80.8266716859446
80.8168538280206
80.8096439405599
80.8182390209513
80.8313243314111
80.8279621438812
80.8191067986204
80.8102407950824
80.8053326908441
80.8196251192061
80.8166091334932
80.7997867775103
80.7928230614233
80.7811501553004
80.7772414271567
80.787449020009
80.793915288304
80.7997066581585
80.7837456144061
80.7617708473046
80.7538508303197
80.761666990416
80.7788863632793
80.7799503854804
80.7698825487465
80.7708028246483
80.7754865350659
80.785291333521
80.7968581484647
80.8043640494241
80.8045255243974
80.8011686444903
80.7996719988738
80.8070381968604
80.8217789571604
80.8359102236804
80.8345689156746
80.8280006565635
80.819996725931
80.8314807599154
80.8578225007045
80.8602085884414
80.8697748089336
80.8686804774732
80.8661540672296
80.8693281070412
80.8447440882747
80.8308683712182
80.8289778486282
80.8354739137572
80.8499093863239
80.8428530911248
80.829653147942
80.8423687631815
80.8491927065233
80.8447852720723
80.8252124856822
80.7990191950778
80.7944963955906
80.8065895714957
80.7986018044641
80.7953969553996
80.7887436156592
80.7801181802986
80.7555550293373
80.7466526657132
80.7491132923223
80.7414340990668
80.7246084978161
80.7156777951482
80.7068331401152
80.7034911347957
80.6893930904218
80.658494402641
80.6370104521852
80.627186608242
80.6024064040527
80.5866527752311
80.5775739881181
80.5627874847494
80.5533368631266
80.5539307954657
80.5382386203427
80.5370709100636
80.5439250777933
80.5326572178915
80.5143625438082
80.4984128422471
80.497228644176
80.5139194566418
80.5224994541849
80.5230226371564
80.5325663229121
80.5650255792638
80.6060866647048
80.6137458197625
80.605118893722
80.6161731549511
80.6449747143489
80.6582157472237
80.66716082427
80.6978959598741
80.7091286247603
80.716902457294
80.7467921832551
80.735138182291
80.7059049051529
80.7015782287898
80.6897199178009
80.677415933783
80.6847697873769
80.703105799553
80.7097874938268
80.7369048177687
80.7355626588659
80.6945758552297
80.6807548901051
80.7084770920457
80.7189394094699
80.7103812831741
80.6927640985396
80.7026736320076
80.6940603608401
80.6607485331843
80.6603489725755
80.6781878899871
80.661840620742
80.6375524930159
80.6345894729636
80.6419201553445
80.6129615138777
80.6055680988796
80.6222116787624
80.6119568974556
80.6217039363408
80.6394662468758
80.6332895990365
80.6407554230874
80.6393773819698
80.6283454168496
80.6273150327536
80.6236557128189
80.6355444193173
80.6528964588259
80.6391985899038
80.6461906674706
80.6687069473164
80.6722445678676
80.6366861375522
80.6476728729735
80.7228364505809
80.7600089353971
80.726890592824
80.6999127588698
80.7065911578321
80.7077445755647
80.7101163176612
80.7332591015041
80.7611802224662
80.7679663345714
80.7400424696511
80.7037856048598
80.7287957273745
80.7491558874654
80.7438967390516
80.7875801725866
80.7895439791328
80.7576875842572
80.7571951686611
80.7866763028179
80.7833995332633
80.7408158278324
80.6885994675163
80.6831684619338
80.7277608329403
80.7296983516396
80.7024648556626
80.6845163408623
80.7143277996214
80.7516355692914
80.7268895059395
80.7071624295803
80.708676621083
80.7014035653984
80.6777700759629
80.678852845327
80.6793721644692
80.6990087093096
80.6994727987019
80.6420606546981
80.5912627085849
80.6329606597703
80.6358598478222
80.5636001505925
80.4950308503792
80.4772149806674
80.5180804970081
80.4991736894824
80.4303291057428
80.3907289724212
80.383761443758
80.3734562815145
80.2771273803819
80.203888160451
80.1908761661656
80.2106283857164
80.1798874894049
80.1623596407308
80.2170877452261
80.2607795792386
80.3363838432715
80.4164129738844
80.439839702523
80.4931711266688
80.5378584081259
80.614070585777
80.6539629961078
80.6744047555582
80.7331777272621
80.8093537156558
80.8439221665654
80.8787062323217
80.9886017160015
81.0442676075193
80.9891422702187
80.982842432291
81.0858157498255
81.1379586021936
81.1329351364015
81.1225576736322
81.1010023248967
81.0891313314842
81.1207567001813
81.1450022537907
81.1023910370934
81.127881309311
81.2638133418646
81.3761724374509
81.3884194395159
81.3724101985535
81.4052432976205
81.4451916651896
81.4288974003378
81.4676354524298
81.5009147380839
81.5010086991625
81.5275322873462
81.5419639357912
81.576500208179
81.6058269432609
81.519675146778
81.4873258101735
81.6300774108311
81.7195926089554
81.7253725502556
81.8427205590487
81.8839643623393
81.8477026429777
81.8228203514394
81.8358887127065
81.8946550181981
81.9930802613032
82.0421770687929
82.0292296568302
81.9533552760922
81.8950239017956
81.967528881305
82.075234859409
82.0692187663499
82.02644680673
82.0917078651662
82.1313616018182
82.0877360996475
82.1222886500091
82.1301543844458
82.1856818876757
82.3042754477413
82.3985240078511
82.3589207212648
82.252558646683
82.265984181503
82.4844609884957
82.5349160951015
82.4522829340147
82.4605202529008
82.4934655677663
82.5916753286542
82.643018442474
82.5613471134267
82.5310950583613
82.5699928636824
82.6656581032215
82.7154746963092
82.6364127973451
82.6150650837114
82.7062631433375
82.8113946908503
82.9561764790942
82.9472248436364
82.860413456044
82.9837833876652
83.266596548526
83.2161057680448
83.1700401151404
83.6672812329727
84.8405369250883
84.4097373808311
82.614935837916
82.5103954361768
82.9469589176056
83.0540555796476
83.2406372312981
83.5341407935711
83.4174561938314
83.3367716593499
83.9692241274299
84.1763758916723
83.4695570755783
83.2313313959316
83.5735719164136
83.6644696484232
83.6726266955359
83.6313084519718
83.8104606360737
84.1561657627
84.284394401321
