3596
4000.36533379555
650.420452594757
1
128
2
87.8645967275218
87.8840531303202
87.8355010488118
87.8027245720365
87.8079479341362
87.7983496886643
87.8042956209064
87.8247585934555
87.8267079603591
87.8318507209861
87.8452549318838
87.8802309955938
87.8908690301447
87.8585254187269
87.824964674394
87.8283949891784
87.8261597877446
87.8455073122386
87.8557782677319
87.860651942969
87.858637294368
87.8324899453196
87.7795964081935
87.7635938353591
87.7914839409733
87.8140874122081
87.800538977577
87.818270666251
87.8438861865237
87.8398875488783
87.8066244456878
87.8041417446981
87.8377974533302
87.8639595991885
87.8469858330323
87.81707325497
87.7832429532815
87.787626065494
87.8222369214102
87.8618807923423
87.8566105837359
87.8302810652894
87.8221219927417
87.8208611622359
87.8244014359119
87.8347897542183
87.8293538474201
87.7856382035059
87.7464927559197
87.7260139623862
87.7068194216345
87.6542238068383
87.6404284716118
87.7443729087531
87.8337972834834
87.8891818492317
87.8669731850955
87.7437652290928
87.7336345144307
87.8058351893872
87.8842306283675
87.9481007617476
87.9616171517097
87.9832098537662
87.9688252338919
87.9379159796368
87.8898633493234
87.7809575684204
87.6382265287982
87.6130292680511
87.6367198664697
87.6332595607793
87.7297805900725
87.8550870563285
87.9163405564189
87.8803771758476
87.7703677077382
87.7687033845404
87.7955014583698
87.8524586787272
87.8558701229621
87.7607658878572
87.7865824112667
87.8175797833751
87.6613623220116
87.6282848144979
87.7845307058083
87.9449487041398
88.0477877111147
88.121291619632
88.1228905090915
88.0779230023012
88.0515030842512
88.0347537841547
87.9643997881417
87.9035271680003
87.7597497967443
87.5406548701927
87.297894502483
87.2564070021819
87.211059158641
87.1349746661122
87.4234383624561
87.4924387205975
87.5404745070579
87.9046050370106
88.1933926009908
88.3905958817044
88.4622146108007
88.4233536596264
88.3283948512027
88.1316942152073
87.7609656831257
87.668442162393
87.8346867027071
88.0322816638859
88.169132845756
88.0258609422365
87.6896781284563
87.6317604185924
87.6716586196211
87.8166830881504
88.0918214104868
87.9737601559007
87.7073088630097
87.8172578242181
88.0263462458279
88.195047358454
88.3637043520882
88.3573237233417
88.0973346077026
87.9102629160703
87.9150358711071
87.8673483649316
87.7297758165926
87.4191949087615
87.2712857994167
87.5832429176091
88.0001925834249
88.1970327839238
88.0740103936381
87.9676281156146
88.0577091741195
88.0831736795513
88.0757514888617
88.2315756960884
88.3543155042565
88.4349781729901
88.3720238157122
88.2002207631271
88.1216842371912
87.795028581111
87.2045847878255
86.8560207558141
86.6963523150696
87.0537149754259
87.9181791920323
88.4684127373412
88.8629585443067
88.993972349771
88.9648592843879
88.8817862324582
88.6766670667396
88.2985529750446
88.1055910182123
88.0562299477146
87.8164444849917
87.6947731810728
87.7078530539788
87.5229118021292
87.4413639282875
87.8455209322393
87.9682867273514
88.0565410797193
88.4099532954957
88.5143126526268
88.3969915444744
88.4352692509597
88.5716858994751
88.5812316537997
88.5642110227651
88.4372895698954
88.3048356762625
88.2883869279958
88.2647739524907
88.2430730720886
88.0582739541838
87.6790951246683
87.3699155128994
87.3889183345422
87.7632394534921
88.1928471481198
88.196304938692
87.9435245973565
88.0656655132328
88.3543719392116
88.5904390593688
88.7939969314866
88.8298945334768
88.7526984389509
88.6827051373311
88.5743392322951
88.2415731110168
87.883074065375
87.8456950370703
88.0338093643798
88.1766429503519
88.1344664098111
87.8915476467571
87.6243717005225
87.7845850269491
88.167760299442
88.4515794596352
88.5621401679765
88.414093674672
88.4478257188071
88.6487370617464
88.7142462869536
88.7310023304179
88.7631682510639
88.7460418175258
88.6540895045441
88.5803643052368
88.5431216697639
88.4755031557391
88.3854596404075
88.2451858343073
88.1339967201425
88.1797496539854
88.2618273921837
88.2977666264882
88.2876729393891
88.1231257019868
88.0597111729352
88.1660465677611
88.3097265708498
88.4744336786077
88.5278720435249
88.5708689694929
88.5800480932127
88.5730557024721
88.4867680057442
88.2032810669082
87.9695852201322
88.0879559702871
88.24027089177
88.3432145735493
88.2873976974369
88.3245612310436
88.4393492791822
88.5690286887744
88.6869362209688
88.6726859207987
88.4558890231839
88.2831026767283
88.374041498706
88.4087726832088
88.3610533139131
88.4852879777204
88.6279467232693
88.5793489156288
88.2357223769774
87.9588281383332
88.0238148975911
87.7946932673575
87.7645815465411
88.3443500150558
88.7877983149064
88.9910027586489
88.8157196106595
88.416031695398
88.5744157419689
89.0948142869563
89.2999100727051
89.5067639780266
89.6460000576115
89.383926374108
89.1536471311823
88.9554287830552
88.6676134433326
88.3721199844499
88.3971277447729
88.6191351875774
88.522886561286
88.8573906713346
89.3065387316201
89.4895954579486
89.5760777777758
89.5006651683687
89.2891468015008
89.0857848538707
88.9135463229438
88.860816804397
88.7708505220768
88.6950399181787
88.900149603761
89.0257671379451
89.0270974058278
89.0984232054801
89.1798519829468
89.1966373097419
89.2060466310352
89.1515516364443
89.0534261842807
88.705010368952
88.4180492502003
88.5029957716503
88.5498270042448
88.6195920300399
89.0118014966235
89.3318891972611
89.4916848473957
89.5286304953432
89.5607712052878
89.5199743965907
89.2778721593663
89.0104695946711
89.0111124505184
89.0910796451616
89.169280885382
89.2537066388697
89.2829777139518
89.3056886562911
89.3474073066845
89.2839980201875
89.1779769615812
89.0960540231654
88.8610677485199
88.7663392600708
88.7358853548528
88.5380987301824
88.7139778141715
89.1553844034718
89.4742149678513
89.7091068865203
89.8025719043988
89.8492622701275
89.8372929244772
89.7237905410368
89.5136652421529
89.3500492221454
89.3126729884163
89.1983365595739
88.9042921665531
88.5663041850388
88.5085170131007
88.9824060482318
89.4785920613085
89.6312051762684
89.4761935288612
89.4991391191812
89.493168927128
89.5656060584783
89.8793821490806
89.9562002227709
90.0005429674329
89.9559822555147
89.867809909857
89.7189552319267
89.6241432103491
89.5458563671583
89.5058699823312
89.436711536865
89.3349297684148
89.0574353610483
88.9009401326317
89.1291100514274
89.2798666967792
89.3472770075981
89.3359785575104
89.0953488274905
88.832714574811
88.5450515789997
88.5035568606535
88.5788717222401
88.813744334334
89.3708317674507
89.6442462840634
89.7800532422763
89.8008570079237
89.7760294102548
89.6472667233644
89.4425171720836
89.2241522464251
89.0830783762692
89.0263553353752
88.9988044752397
88.9523212525
88.8206208259116
88.6664321681254
88.6422089013038
88.6213154654047
88.5797606546547
88.3448329539541
88.0237840398487
87.9930092338902
88.2319168877441
88.4504280533106
88.7370701462605
89.0029444593359
89.0081801625661
88.9286607778688
88.777712306047
88.5327874500145
88.2110697889578
88.024916276642
87.9244806090311
88.0838955181731
88.3332582446539
88.2683053858653
88.2836602649464
88.2262730142137
88.1325235914526
88.2449459146613
88.1807799240229
87.9490622030355
87.9561731113567
87.9344157024493
87.8746838797106
88.0651258074657
88.106259027763
88.1644646994096
88.1272170522013
88.0561642532398
87.9209765304605
87.7612529150408
87.6635610228106
87.6071770791326
87.6344241623304
87.566640364014
87.4675471643513
87.5001666807419
87.4756982217575
87.504229690352
87.6571487806871
87.6509485234997
87.5687743734401
87.3700907835401
87.2542395096772
87.0797378040771
86.9638365227827
87.2426911370292
87.4466403113992
87.5721946183243
87.6164449499937
87.5729104380409
87.5023085769034
87.4019997362249
87.3307751876396
87.2758489889986
87.1899358982609
87.1208343599999
87.0701790492241
87.0107512435003
86.9756346291432
86.9744557725391
86.9675580483248
86.9029190254983
86.8007130776512
86.5396009691655
86.3498831935376
86.3501457506658
86.4558521998591
86.7074900785385
86.7781260545798
86.8991966698808
86.9811429265737
86.9151290480943
86.7670951909002
86.7393278564692
86.7549708608234
86.6895361327013
86.5811327722739
86.4933937590692
86.4303117556417
86.3795509602889
86.2711709082926
86.1967104633444
86.1744315135549
86.2215076143861
86.2644074349897
86.1714907926232
86.0242115542844
85.8928852505921
85.7809569085506
85.8677476158087
85.9357345218556
85.9845862090224
86.0127326305856
85.943295673507
85.9062742770405
85.8572582026665
85.7845098499046
85.6814852911678
85.5990007978267
85.5991077535529
85.5760715577879
85.5031457558082
85.4857548135816
85.447114745622
85.3293705200813
85.2196732014056
85.1164670641456
85.0471734879108
85.0342142950888
85.0615494641448
84.992079260633
84.9362380292961
84.9518676770371
84.9718695761684
84.9681496505104
84.9875990617561
84.893789322994
84.7737141077064
84.7634027807675
84.7344049891068
84.6379942336154
84.5411225812221
84.485579498895
84.4510553633178
84.4140764513821
84.3329494002097
84.2213573359765
84.2065809561401
84.2295545265261
84.1542213127225
84.1152318115376
84.0390008014052
83.9715529045688
83.9021357042841
83.8331910493795
83.8346922576646
83.8506371629783
83.8427081151771
83.8354476496294
83.8225651525952
83.716756705103
83.6059084583723
83.5777824505866
83.526041267349
83.4951700510391
83.4632178165614
83.4115750829406
83.3628160562984
83.2768184395305
83.1790787954526
83.1042584149572
83.0637589922029
83.0724818686764
83.0803475604351
83.0369980861876
82.9912309211509
82.9083768540658
82.8368193676476
82.7514360784818
82.7581159959471
82.7940545229964
82.7410391119473
82.6719352490954
82.6807655823818
82.6403876936618
82.5597177200968
82.4939625958659
82.4054281615317
82.3056509698212
82.2425099935349
82.2254153274575
82.2132881133472
82.208140550137
82.1992190378087
82.2401473558655
82.2400109828473
82.1289300660385
82.0118813613131
81.9691271693286
81.9099960828678
81.9114329772589
81.9644447719331
81.9650370021453
81.9183138206678
81.8456797445526
81.7956277454543
81.7636592771103
81.7108069052074
81.6616856937903
81.6293915909539
81.5994795688029
81.5494723447532
81.472378031216
81.3565483717267
81.2931185628327
81.3157217785635
81.3067989482792
81.2723782394822
81.2134488492196
81.1687004575392
81.1510687900832
81.086207996783
81.052981649237
80.9825488761639
80.901193047902
80.8953639294309
80.8959552743873
80.8890117961052
80.8791857359155
80.8832146234625
80.8074877969867
80.7053525614201
80.6736618134517
80.6862831856096
80.690964731319
80.7053614411252
80.7139987503581
80.6944840507631
80.6371431444718
80.5185949019361
80.4161952908222
80.3544480685382
80.2930421387254
80.2570501046928
80.2864153877108
80.297267410254
80.2337957826932
80.1739899659275
80.1524824325453
80.1197434264439
80.0429420594101
79.9974729666508
80.0026004146174
79.9949914951311
79.9540171108895
79.9109962150169
79.8791627702194
79.8478559341363
79.8048819441335
79.7324621677344
79.6491268910031
79.6096689326507
79.5502989221372
79.4870748195535
79.5153547976276
79.5712211893147
79.5729364090519
79.5852394315625
79.6133600036413
79.5489143921705
79.4490478607938
79.4056129506449
79.3424010892656
79.2827157715082
79.2954773930074
79.3628460507734
79.4016375040876
79.3630447646125
79.314050840709
79.2810834405738
79.2375076475215
79.178052702464
79.1609944551927
79.1139439055612
79.0225845474593
78.9317274252472
78.9083658696742
78.9228471385874
78.9093834047625
78.8744733356185
78.8538357305882
78.8467303625101
78.8231751501025
78.7738622276579
78.7143674566744
78.6682199969197
78.6484636046274
78.5969724856508
78.5472722816026
78.5873389644472
78.6022720077579
78.6063949606607
78.6436406361951
78.6434516560395
78.6197204600372
78.5884401296178
78.5428007319967
78.4996830375349
78.5038498104826
78.4937184844458
78.4343471003144
78.372371812098
78.3523324799632
78.3372681969909
78.2900644242344
78.2626099659848
78.2252971985065
78.1872254541514
78.201954651176
78.2297893224382
78.2308208253124
78.2087550739546
78.1973438150689
78.1689776748224
78.0909971731808
78.0225984883953
78.004705436547
78.009261396102
77.9920606303074
77.9664342013627
77.9405856391598
77.9130894105994
77.9019140244445
77.9408532975503
77.9760769692647
77.9336480059063
77.9473111765604
77.9773575894332
77.9480777525455
77.8971711403288
77.8422923462289
77.773559868693
77.7570849115952
77.7522234474938
77.7014690464086
77.669858031373
77.7051055518041
77.7088613449514
77.6986266853772
77.7095159708466
77.7220239243161
77.691098995166
77.6514041674678
77.6014074460448
77.5686039050013
77.5248722701701
77.4841479846561
77.4776823395048
77.4751350851575
77.4434411521718
77.3971979201723
77.3721962562228
77.3549778616116
77.3441920156857
77.3563867503976
77.3654861731362
77.3601197023943
77.3318346433562
77.353198222479
77.3859325624686
77.3959071949946
77.3654174135074
77.3070521578659
77.2785625661317
77.2712816917761
77.2376274543221
77.2380596699778
77.2371595037478
77.2189030371508
77.1920840473301
77.1431247634373
77.1583225401906
77.2155100602571
77.1916220622242
77.176010603479
77.1808480360135
77.1585123066279
77.1366174001677
77.1029729725477
77.0248223677373
77.0161301553304
77.0289658716701
77.0011601165071
76.9682530621337
76.9859225781621
76.9614098386371
76.8897964276533
76.8546897758035
76.8575985276345
76.8675082054792
76.8569008984733
76.8611892404207
76.8571589369346
76.8103604762509
76.7894247561198
76.8059522457549
76.8468286285439
76.8674635450547
76.8184989879691
76.7611783377043
76.7717021643238
76.756565884219
76.7438201280177
76.73761609734
76.7094308722883
76.6755643494423
76.6731743670702
76.678998627019
76.6478665319369
76.5922003135755
76.5899525517438
76.6165354027616
76.6356082262865
76.6221069980898
76.5875637694609
76.5584035127843
76.5600810341798
76.534555908343
76.4841343508832
76.4753042623508
76.4867437394229
76.4885902448469
76.4782859546716
76.459820727199
76.4445317062458
76.4307719452213
76.4474375623155
76.4331699041371
76.3922600625241
76.3449967854859
76.3179804273484
76.284691393995
76.2492475869982
76.2230747810779
76.2301963233812
76.2596358397279
76.2894876593077
76.2943689409245
76.279799501633
76.2493402885294
76.2552524151609
76.241243229979
76.1854317194177
76.1721265772366
76.1733740318527
76.154857730847
76.1108220975638
76.0776162692312
76.051957395918
76.028964910743
76.0467540710733
76.0604345898653
76.0547830629692
76.0207539233962
75.9973105687383
75.9995481729607
75.9831161525324
75.9578229723829
75.9690457738325
75.9786366266771
75.9521535730239
75.9002880545147
75.8888017528945
75.9009638440451
75.9088004307446
75.8848772265105
75.8466183380493
75.8239017799989
75.8405214174221
75.8505990809456
75.8346247845565
75.7778102248828
75.784384912537
75.8224232386412
75.8243208905828
75.8339825037396
75.8084999908414
75.7749717336882
75.7793704424975
75.7573971744389
75.7410274164135
75.710492134369
75.7047921180648
75.7343353571822
75.7224930273115
75.7262605833202
75.7175288846407
75.6719658708011
75.6767169158244
75.6973971206759
75.6999466586747
75.6953505790531
75.6963778531114
75.7021167824803
75.7004462172537
75.6917632044265
75.7053596813152
75.7095380755643
75.6885609464758
75.6656205943709
75.6709904465004
75.6859749607548
75.6981672768214
75.7044340033569
75.6929589977862
75.6720297996384
75.6638445268184
75.6453132751221
75.643121513647
75.6669204433203
75.6844483419729
75.689532600092
75.6871268522644
75.6621348255226
75.6240703359584
75.6065809482358
75.6302592658602
75.6483050226413
75.6365346796636
75.6151148465295
75.6172853032179
75.6452116432994
75.6689333359835
75.6757946888332
75.6702162246011
75.6661131095001
75.6693323381484
75.661313478362
75.6668871256951
75.661301777339
75.6530389398604
75.6611540848831
75.6883802297887
75.6752067050647
75.6340067418063
75.6325222448872
75.6643938966366
75.6850098010255
75.6898527503934
75.6799647634829
75.681149632181
75.6935445003387
75.7192548684193
75.71683861039
75.6684889533198
75.6580934266198
75.7068336084535
75.7188195223241
75.7153013507512
75.7195129583798
75.7135170565247
75.7026563689968
75.6935313141458
75.6977910811543
75.7104095380477
75.7007647112074
75.6933759803509
75.7021266256363
75.7206794938902
75.7150135707575
75.7210281107494
75.7646687098556
75.778485388556
75.7764592774888
75.7828815202566
75.7789364040916
75.7762802138385
75.7734077600335
75.7693140742896
75.7796889250607
75.8104204160938
75.8176719475674
75.809358641409
75.8179941042909
75.8158840543999
75.7931562194462
75.7837281868406
75.773055994791
75.7825962352729
75.7950809544525
75.7849386220053
75.7806183510198
75.7828326897733
75.7870879701801
75.7845983434504
75.7441504691584
75.72890223089
75.7414670512602
75.7503376851331
75.7230524319775
75.7053084966173
75.7082549293044
75.7039801806891
75.6983696768773
75.7002553452385
75.7142360372753
75.7290471264609
75.7139687851069
75.695094364475
75.720918871367
75.7534669455944
75.7542129679354
75.7664678202187
75.7965382394344
75.8257966541166
75.8298554197903
75.8123565662962
75.7980027568882
75.7952963158224
75.7674627389897
75.7200364134588
75.6944132053986
75.7341189345491
75.7679997040573
75.7663905938533
75.7847906274575
75.8211169326845
75.8563809632517
75.8656124249322
75.8338357808163
75.8160201998137
75.8191234262579
75.8060838788638
75.7719058041213
75.7844115674069
75.8325061277272
75.8565299373846
75.8556448950339
75.8445142020207
75.8319364983665
75.8446210345234
75.8615022837113
75.8970617482745
75.9436834117617
75.940587274952
75.9254164704967
75.9412426194414
75.9487670636419
75.9510531605385
75.973849352831
76.0164432521673
76.0583671717094
76.0962465807883
76.1306954332415
76.1390301997131
76.1122180255388
76.0891364339416
76.0984411008664
76.1432731495259
76.1734320678241
76.1936486602956
76.2113253183139
76.2412414327359
76.2735078613053
76.2843782052342
76.2756223219899
76.2773904526753
76.3015530046474
76.3042287352448
76.2887090398452
76.3001235739807
76.3036372354323
76.2928868389554
76.2939700975248
76.3049031534491
76.312175068486
76.3055651761959
76.2902810476981
76.292176864821
76.2762774124817
76.2494326117032
76.2590524265086
76.2684436337468
76.2699921208245
76.3009701816567
76.3242896203922
76.3150476362066
76.2893360508053
76.2667003437676
76.2421185241628
76.2220067153729
76.2125570375673
76.2153225778143
76.2226571772113
76.2296346106851
76.2228899514764
76.2127455783031
76.2005806751138
76.1926933702477
76.1836054483975
76.1810040534714
76.1635188388555
76.1348149156103
76.1398730146069
76.1440049356682
76.1354586026017
76.1105278771356
76.0730504126184
76.0638482576069
76.0656168107862
76.0424592707843
75.9826396502716
75.919876617725
75.8665548841449
75.8138364198676
75.7672267028597
75.7208172446762
75.6538314454729
75.6090628779781
75.5653118510072
75.4900359315318
75.3992861358968
75.3253300945697
75.266421328717
75.1896701668252
75.1026403701796
75.0036789673497
74.8793788046974
74.7661122060876
74.6483747928016
74.4923547242066
74.3270023847256
74.1879457842012
74.0455078472965
73.8623281422178
73.6698645697707
73.4907617268749
73.3143266532837
73.137465686864
72.9730931084207
72.8354533008909
72.6920637225193
72.5615327164118
72.462597378797
72.3579661742623
72.2621452473005
72.2136408246325
72.1764254056334
72.1496744274282
72.1471527707969
72.128711600787
72.0815913828908
72.0658156849282
72.042324150338
71.9707344721655
71.9001836617936
71.8222795624087
71.7019202428375
71.5425788847018
71.3538846945538
71.1584016973086
70.9387620466288
70.6462330330135
70.3345514316421
70.0499649498554
69.7355542719661
69.3950014489558
69.0306746442335
68.6473017258803
68.27069843113
67.912642039608
67.5477933639418
67.1922740599947
66.8574505427812
66.5441958684845
66.2622424875714
65.9972033154153
65.7674420357787
65.608682648065
65.530729008172
65.508660982632
65.5355173542054
65.6311476116068
65.7699782697346
65.9653173050979
66.2359423984214
66.5111186811808
66.7862285215546
67.1113486401984
67.4455866034864
67.7695081691148
68.088466316744
68.3772452145065
68.6509588514474
68.9022909886147
69.1158137269233
69.3346619469089
69.5549638625797
69.7366742434321
69.9047698331456
70.0843982062964
70.252285698888
70.3895175188094
70.523034941019
70.6631622795798
70.7819947107498
70.9023328870777
71.0593064858694
71.2272229754565
71.3741353549256
71.5087760833368
71.6374846754139
71.7657440739932
71.878283708256
71.9714813344966
72.082455777507
72.2037793352497
72.3099324330113
72.4157556414308
72.5136191101664
72.6204829764365
72.7094475531902
72.756510169978
72.805830876185
72.8567384798571
72.8939351859352
72.8918106317202
72.8658623270316
72.8356627659978
72.771849526106
72.7144902014102
72.6820995829694
72.6464869373083
72.6009326401397
72.5683652419516
72.5527636413826
72.5368452271948
72.4985906318173
72.442937521313
72.3819472817919
72.2989895488267
72.1872241129838
72.052182103688
71.8702172516836
71.6446603061329
71.4025815622374
71.1263905889331
70.8145814277956
70.4936000960407
70.1628324604519
69.8310942971646
69.5260399843949
69.2712431717697
69.0921370581698
69.0030339117838
69.0063242753733
69.0894828563212
69.2510426257522
69.4914661642287
69.8132744559524
70.1908290344076
70.596338328526
71.002857046538
71.3903558201992
71.7729198211071
72.1225605079477
72.4405060056786
72.7371704099542
73.0238881574891
73.2893992643032
73.4930260409963
73.6670153042478
73.8642540723156
74.0520514948502
74.1981881558045
74.3275033547305
74.4474593900195
74.5555224516367
74.645747691962
74.7336886825038
74.8353130090814
74.9370419599341
75.0094777304443
75.0676534164358
75.1349412212796
75.2073082358608
75.2752743511942
75.3167706236269
75.3723615051161
75.4525053645007
75.5188380519386
75.5734725278148
75.6106997883591
75.6463305084026
75.6985900393155
75.7486915450918
75.7786310923419
75.7994836161076
75.850465073583
75.927209680375
75.9828726368711
76.0209790335451
76.0616822292761
76.0831305199392
76.1000163038601
76.133817319904
76.1619547664624
76.1839214398525
76.2014611588006
76.2150359174246
76.2086621489654
76.2360119215562
76.2895427071157
76.3268727309472
76.3628843124399
76.4013588896764
76.4262553823135
76.4261664947919
76.4372936285757
76.4808378119452
76.5053882036146
76.5002039286657
76.5299109706946
76.5738960157715
76.6168174976604
76.6372858384195
76.6338124470347
76.6404606988068
76.6487122243734
76.6605261199447
76.6609092214219
76.6674180210761
76.7084286110863
76.7268292153463
76.7117276246284
76.6955695455897
76.7107923266232
76.7466484218357
76.787071733072
76.8237881201817
76.8262130765773
76.8051743731563
76.8142141497388
76.8405141775571
76.8420092353442
76.8390787016991
76.8508542113164
76.8600371293046
76.8736444335211
76.884804664702
76.8893837753833
76.8920893019724
76.8916124241854
76.894284385639
76.8963035207242
76.8917961599136
76.8984529668615
76.9260548619655
76.9441679379693
76.9360729497351
76.9325061735398
76.9369283329902
76.9370705694867
76.9458234934305
76.9479882855131
76.946360519505
76.9805715307126
77.0185150522233
77.0219316650912
77.0083702563331
77.0060482729544
77.0117988273911
77.0308599105196
77.0289800163201
77.0145588878406
77.0086967559029
76.9873927998973
76.9979784713485
77.0434039994476
77.0563972545897
77.0537045342274
77.0469553394769
77.0377528770961
77.0440793667823
77.0239926184403
76.9958706719328
76.9987210544284
76.9845375288226
76.9643358957499
76.9987973627841
77.0450721241884
77.051792088922
77.0393649711277
77.058018238553
77.0991660575354
77.1190120406558
77.1209645634198
77.1045388555469
77.095728746946
77.0938597329277
77.0942839810258
77.0999580003459
77.1041679519791
77.099411502024
77.0972794939989
77.1023744753504
77.1079811849422
77.1092464846279
77.1099216457649
77.0993959623944
77.1002942594407
77.104431363087
77.1226261928111
77.1414821523897
77.1543642644876
77.1537188782877
77.1485250339248
77.1511576031691
77.1422250498696
77.1559952634747
77.1796029904247
77.1779412768065
77.1870548792918
77.203937855908
77.2157508117137
77.2064760962978
77.1941569567673
77.2151443992693
77.2318591113139
77.213478596994
77.2116720868896
77.2216887441975
77.2335868663168
77.2387211240923
77.2228131747877
77.2166527897694
77.2163237453918
77.2311834348842
77.2580897968153
77.2726155094274
77.2767256775922
77.2858959247214
77.3282143877532
77.3557957327539
77.3547262766588
77.3567888769563
77.3702037689042
77.3733214557532
77.3986009541382
77.4222263452183
77.416718202871
77.4130251666828
77.4275862687238
77.4338064012199
77.4241268943956
77.4169571469496
77.421195979192
77.44306282501
77.4368248151552
77.4298000331277
77.4381923528663
77.4472429496548
77.4554809533873
77.4595759842149
77.474288839068
77.4923226658963
77.4987998135542
77.5029342905821
77.5222732604347
77.563955269516
77.5951959912241
77.6036985536566
77.5995170245239
77.6134430334583
77.6569234581255
77.6802314872526
77.6785436950427
77.6818672402294
77.6998327398126
77.7139694863331
77.722438148252
77.7513858320295
77.7619573304945
77.7712079398378
77.8076193452649
77.841818250909
77.8567247977769
77.8738590884315
77.9166853094834
77.9519055765147
77.9660906890929
77.9699520546499
77.9653887497272
77.9703467929345
77.9907613253651
78.0020418961316
78.025794463897
78.0757673964766
78.1192743982305
78.1222200164375
78.1250728742549
78.1532003797395
78.1809689722269
78.1812061766127
78.2057767699671
78.2480995593273
78.2479191523586
78.2361830304762
78.2498749282072
78.2720017077601
78.2961067129454
78.3064250725434
78.324634818319
78.3523000032801
78.3929924327433
78.4176625912546
78.4094943657565
78.4225190608934
78.4658715033576
78.4624062738789
78.4667654842042
78.5063335911159
78.5371964304815
78.5361269120134
78.540494843305
78.5374959304516
78.5636922312865
78.5868561986617
78.6043221722183
78.600598477741
78.5993442111745
78.6424250317091
78.7098468229527
78.7346052220266
78.703883015492
78.7171374737335
78.7602611390166
78.774907294787
78.7820141719036
78.7803109730432
78.8059774950131
78.8269944504265
78.8252888693105
78.8108907273287
78.8528720659313
78.9223664320787
78.9355235354219
78.9313428018116
78.9390983249931
78.9330923907772
78.9446491306901
78.9727476511759
79.0148608413239
79.0095948199268
79.0093311284225
79.0230399990494
79.0696470930456
79.0776343313106
79.0707761571325
79.0881813262592
79.1115531356392
79.1244134284057
79.1371368021572
79.1812930052972
79.2047930827108
79.1855016666288
79.195925195059
79.2269544555624
79.2489371624093
79.2295452612186
79.2550682072667
79.2660428964958
79.2753623036098
79.3135604759041
79.3506510829299
79.3850448241674
79.403089980159
79.3599190930552
79.3480926110798
79.3670697764851
79.3817422534845
79.445953770483
79.4585018971093
79.4563102699317
79.5155856231062
79.5601316202073
79.5497200728781
79.5739460265404
79.6024550782914
79.6123015041055
79.615625089022
79.6036437381423
79.5969814716375
79.6477346925178
79.6909713168986
79.6906268643043
79.7269734562818
79.7478880108832
79.7621360945722
79.7633448359546
79.7609105307623
79.7911181815169
79.8248251159424
79.8434536734126
79.8587656095667
79.8547382960649
79.8525849482575
79.8757358573857
79.8967911746617
79.8984107999228
79.9302575811813
79.9399031144306
79.9664552050836
79.967126879105
79.9662581450132
79.9919883505164
80.0207110450798
80.0381580046628
80.0512652172509
80.0697727575398
80.0886741971913
80.1030231269887
80.1095716290249
80.0811543892687
80.1127345871448
80.1463884847888
80.1397307680634
80.1427975555661
80.2110417803193
80.2377446769385
80.2295780364788
80.2289031538196
80.2319806399517
80.2097803379498
80.225011618857
80.2383359870416
80.2811483519406
80.2816077446593
80.2501325773001
80.2576682441525
80.271195996937
80.2858258863638
80.307382042249
80.3577133098308
80.3872544034598
80.3592718845558
80.3801207510878
80.387093709914
80.3838989823141
80.3931533230424
80.4253214621675
80.4394739341585
80.4313620850662
80.4103453595006
80.4131345615977
80.4565450694684
80.474104865085
80.4482238630935
80.4502948838468
80.4715792725185
80.5074083525917
80.5261707729703
80.5176118245165
80.5161611131522
80.5312296636273
80.5686837005019
80.5860225426239
80.5563587594843
80.5863704367352
80.6138842800821
80.5832058322206
80.5604906228808
80.5715636431081
80.6155670936669
80.6345470050569
80.6104114144037
80.6262156946725
80.6530835858884
80.6519800959184
80.6656648089064
80.6597356257726
80.6862818844485
80.7206335025572
80.7232117683341
80.713702173274
80.7376856685428
80.7657036289918
80.7497065626697
80.7358989673471
80.7376602035167
80.7830347135422
80.7871944933085
80.7702810999581
80.774370602867
80.7915884032871
80.7988299106195
80.80503657023
80.8014214329551
80.8093519263023
80.8304648524905
80.8792016595567
80.896218706952
80.8901891126202
80.8678304382206
80.8788871731999
80.8906011356912
80.8863616673737
80.9044479406767
80.9275501741912
80.926702388269
80.9372995057895
80.9500836130885
80.9717493424816
80.9775842134502
80.9572802972941
80.9447987543572
80.949635633276
80.9587472441177
80.9801752018499
80.959504278244
80.954569593045
80.9745414991183
80.9815241303669
80.9673291515313
80.9694583581694
80.9998697606661
81.0106756908605
81.0058181737223
81.0327467246831
81.0189076741593
80.984968118323
80.9854902016785
81.0636105581261
81.098130525663
81.0763302615482
81.060183305122
81.0709862615559
81.0901121735476
81.1000015769047
81.0985029564304
81.1106788611713
81.1110322016516
81.0863099588479
81.0666336510719
81.0638358572681
81.0415535994067
81.0469389443264
81.078403134528
81.1107868376845
81.1068033620391
81.099563145611
81.1000933017585
81.1301880573025
81.148916206456
81.140715298738
81.1287162727931
81.1481452507871
81.144760954942
81.1328837382528
81.1523930034691
81.1574727622762
81.1263773152726
81.1370978477315
81.1786697432967
81.2324775436966
81.2328674225617
81.2420128508505
81.2671455839625
81.2900116106682
81.2907517852083
81.3356489161769
81.402611049975
81.4546782372858
81.4063873600756
81.3815492716442
81.4027854215294
81.4168515809222
81.4118067656199
81.3964794406827
81.3702506991938
81.386958650915
81.403648158286
81.3793225879529
81.2870647366512
81.2684011622101
81.254168477921
81.2397335779777
81.24625080636
81.2581218579285
81.2426133677141
81.1946454500462
81.1729769373328
81.2037516306096
81.166523161368
81.0946218325278
81.0261980536638
81.0207290677046
81.0239386565473
81.1087329777752
81.1617602317843
81.254058207428
81.3214720173181
81.4069736833879
81.4239432964042
81.4546151672644
81.4138905489425
81.4222393048001
81.4063770595674
81.4360357653947
81.4051970908102
81.4290300850096
81.3808727180852
81.4186747168333
81.3665443034939
81.4076291464406
81.3996678391777
81.446529215015
81.3782209307994
81.4102490528522
81.3346185259225
81.30191675538
81.2174318468879
81.3069308642495
81.3673689624239
81.4511728919753
81.4819482659258
81.5455048364194
81.6108233624236
81.6192579437109
81.6814523132661
81.6957444326343
81.7775664543154
81.7155498637033
81.7744757247456
81.7732769416827
81.892376175621
81.902919246482
81.9592860938699
81.9398527443865
81.9574451103357
81.9791724454912
82.0034494197379
82.0525221552691
82.0794929982358
82.1087817324914
82.1171515867423
82.1468453091846
82.2075990243918
82.2065258764823
82.2278347847839
82.2599720886472
82.3284613254064
82.3452396080283
82.3616163849776
82.3747689840839
82.4176407657804
82.4379895560811
82.4534094346958
82.4890056439803
82.5557434689452
82.6159360475706
82.6769344717335
82.7040149547633
82.7711061371919
82.8358604085832
82.8668991620137
82.917115147648
83.0130383510039
83.0613375754398
83.1300142518776
83.2319173726399
83.3095091519377
83.3537675551249
83.3876855348435
83.4211065930918
83.5009052846937
83.527365472794
83.5536192116278
83.5815094998081
83.5928135977175
83.6600991533637
83.7818940937651
83.7797094504329
83.8103356043417
83.909361698503
84.0009963021321
84.027567280316
84.0816747290181
84.07714864061
84.0885897082635
84.1322276130488
84.1507487283319
84.2072151390045
84.28871997027
84.2887213376103
84.3443243427619
84.3892551049552
84.4161042542483
84.5229056558575
84.5887804966847
84.5396328728192
84.5312209031328
84.5799537536018
84.6647916493725
84.7246176573785
84.7288737787102
84.7273789043172
84.8008028475103
84.7969862275836
84.7783032241849
84.7690003221139
84.8199340029384
84.9355996462737
85.0667846282706
85.1489673764354
85.2126301108976
85.2511904145785
85.3127603744338
85.3059826450481
85.3094535916865
85.3404680545091
85.3460468764277
85.3781199658302
85.4960833137649
85.5420367769124
85.5375102071484
85.5694728804076
85.6409374032289
85.6760511382772
85.7203550026254
85.7845627757422
85.8519663184373
85.884906137737
85.9843130550452
86.039186832215
85.9528147050035
85.9764442094401
86.1597895296233
86.2333921345132
86.1240137751816
86.1235194815159
86.2304504514236
86.258582122049
86.3034440997228
86.3657799532497
86.3815615412151
86.4123296385019
86.4497845602053
86.4267208527289
86.4537182888122
86.5191786561372
86.577414635195
86.6571810311568
86.7129226579095
86.6547529792168
86.6461703380907
86.8499519870201
86.9637616815393
86.9256567493068
86.9228947113432
86.9732419507043
87.0734234436408
87.1796459807998
87.1739675591912
87.1120763842227
87.1555482439643
87.2372099819908
87.33457227163
87.4446549325013
87.5983556281786
87.70641641621
87.7396769615472
87.7870184543553
87.9246506557017
87.9391167352844
87.8457046690174
87.9466062310733
88.092687198167
88.1138569439809
88.0595969703206
87.9957253590086
87.9294191999172
87.968261849014
88.12907950343
88.1345715766856
88.0339716013319
88.135702737867
88.2895178254644
88.3634943899036
88.4730303710654
88.6186746731983
88.7768886429004
88.8542566664125
89.0332829048801
89.3505465484375
89.4889294683148
89.5963827175677
89.8329989156594
90.0256297807337
90.1359092775617
90.0667617014269
89.8984532219158
89.5762919773918
89.244271033009
88.8845291699299
88.6632776551552
88.4740677908643
88.2302704749107
88.1670563001784
88.0083308592371
87.7844638540178
87.623955991928
87.4729896178241
87.336308059824
87.3140825518966
87.2248193207686
87.0498562958513
87.011305302186
86.9381393091907
86.8185804579751
86.6518624835962
86.6217426892553
86.6196741533035
86.4822439649291
86.4193866816395
86.3600600962223
86.1832482269624
85.966334982269
85.8515039240039
85.7781272954459
85.6280174106693
85.4785818105763
85.3891793406162
85.3189978260404
85.2129272252673
85.1386787958108
85.1109843042921
85.0948711277202
85.0806494704183
85.0550820612458
85.0060685222241
84.9198183249729
84.8973334157511
84.9397470247255
84.9092402858751
84.8595745529767
84.8750282200732
84.9099054516277
84.951936114703
84.9803767015483
84.9774522758035
85.0302745308297
85.0715248448465
85.0724433772252
85.0496493042049
85.0485559851116
85.0646756284345
85.1331860617258
85.1458833341243
85.1874982996247
85.2633274399353
85.2294255544022
85.2069655336514
85.276335957319
85.2777105601716
85.20959340403
85.2636722144312
85.3767683961882
85.3202766103259
85.1983959703966
85.234204962428
85.3122373017383
85.2603074884682
85.205998740168
85.2070991861865
85.195285565476
85.1565463964904
85.1572848243048
85.2049034795157
85.2518753014282
85.2859731054224
85.312404924805
85.3625571995014
85.4110091037031
85.4657838264557
85.5034466310857
85.4294175124916
85.4438439837921
85.5737373364457
85.6813321566292
85.774321085689
85.7899698187829
85.7699961871252
85.8441063627168
85.9204152066615
85.9137445778513
85.9300285708765
85.9485551707841
85.9379394587993
85.9790296994832
86.0376661356182
86.0462780660696
86.1256698112589
86.2428592909941
86.2135273234291
86.2144033242166
86.3415764353273
86.3440864808983
86.302673885215
86.3630910761717
86.4627706041667
86.5252513959259
86.5822690274438
86.6791999620409
86.7036578842396
86.7854903102459
87.0120678924871
87.252961193149
87.50529472045
87.6546525871061
87.7424411569976
87.8537085559235
87.8923069192886
87.9520417603542
88.0868592236658
88.1932856056563
88.1960929919224
88.1636292605446
88.3052961024101
88.603232799778
88.7836523372541
88.7842449700694
88.8394731287604
89.0597469841342
89.1419236862389
89.0004815339592
88.9239661442754
88.9928601931609
89.1021599657706
89.1614251555943
89.1502867284691
89.1698177364228
89.1803316177212
89.1839795725315
89.1085003919993
89.0634121736548
89.1568685441869
89.2038108890298
89.1644773328548
89.0921369381959
89.1123417383953
89.0968539579059
88.9563527248622
88.8810758469771
88.8223234756226
88.7536017430139
88.8418521433633
88.8211258084884
88.6271467070412
88.5347884281416
88.5557598103752
88.6810332487969
88.8474586412813
88.8383150673626
88.6865937833055
88.5260585373762
88.3499009068324
88.2467656424366
88.3245002474894
88.2862048821274
88.1551779048987
88.0860898970082
88.0281043119414
88.0424402523773
87.9977682460899
87.9305162296722
88.0298472442708
88.1056015723957
88.067203051691
88.0104134854966
88.0363153977723
88.0893990111396
88.0595342993658
88.0766192153597
88.2127835177362
88.257367686607
88.2359057103276
88.316334383632
88.4288937258091
88.4594963513927
88.4767170120203
88.7039104867992
89.0122829343664
89.2294320591938
89.3951638213828
89.4672341405608
89.4790165275475
89.4768963545556
89.3404161777601
89.1449945045672
88.9972261239803
88.9063250591361
88.8521684478014
88.8648398324475
88.9326719702984
88.8510273542074
88.6307144931934
88.6026260675525
88.5351985460177
88.3873439752624
88.3300731802039
88.307851564479
88.1959503389142
88.0531021526178
87.9697698349673
87.8698788024716
87.7354167476844
87.6799514676921
87.6241724891722
87.5355931522027
87.4216336592866
87.4215298769528
87.3998497946117
87.271575296146
87.2073796576423
87.1019395695502
87.0675711911938
87.1272571130304
86.939696973162
86.7528638478623
86.8467972147291
86.9744157779547
86.8814328635134
86.7337877437863
86.6536713225782
86.5078706946059
86.3886138186805
86.3983506483351
86.4316097573822
86.4243551321427
86.41786736706
86.3860842216595
86.2806175485079
86.2154112759784
86.253097797346
86.2599435069758
86.1723194224705
86.0928401325334
86.0801256375712
86.060305782973
86.0343844351205
86.0733027041025
86.1128050683815
86.0057933463169
85.876273534705
85.7900633653567
85.8188201190343
85.9900529873633
85.9861226893007
85.8691882591577
85.7869683642047
85.6952662458676
85.653665270861
85.645008433949
85.6257169124492
85.6494737539938
85.7133912926807
85.7264142869251
85.6655394263163
85.6146363997907
85.5452506867155
85.5236616620088
85.584939156117
85.6089377424411
85.6042091314899
85.6187565004429
85.6326304819671
85.6487887726021
85.6168460736941
85.5540997895856
85.5211764285725
85.5598252584655
85.6046649662183
85.5781827852926
85.4944424927228
85.4385723055312
85.3885873926739
85.4572514596917
85.6119484019609
85.6033784240028
85.5272608160134
85.4860967093275
85.4592975950811
85.473499171563
85.4593455106513
85.4230395945451
85.4203007418433
85.4316731070686
85.4319134340385
85.4403740908602
85.4228191574283
85.43744028198
85.4692776851216
85.4710020362767
85.4797360620905
85.4914756471689
85.4848991225358
85.4265165559847
85.387101428312
85.5129524889097
85.6486628398125
85.6217106675669
85.5543034261712
85.4956784644914
85.4102434780454
85.3587441716046
85.3432735169881
85.3557358251855
85.3683809196118
85.3701092925514
85.3690430952848
85.4134056325475
85.4672341006398
85.4930236924676
85.4917991937459
85.4826008785408
85.4437063832106
85.4380103259755
85.4500317264952
85.471984342076
85.4773661501744
85.4774248940619
85.5351520300993
85.5848157587818
85.4675569230792
85.4327449229632
85.7040754347577
85.8397350593943
85.6447263016095
85.513937224328
85.4411075268234
85.3751687085812
85.3464190407116
85.3722946010829
85.4344106356916
85.4661161946805
85.48125978076
85.5250025188577
85.556105569426
85.5114353207382
85.4361470790347
85.5763926161484
85.8317255977619
85.7778477370959
85.5980866712191
85.4615916679502
85.5255552750728
85.6802350676633
85.6274636969017
85.5715869549556
85.5673553438604
85.539370061327
85.5400355704359
85.5601135842596
85.586835583251
85.6518666456781
85.672293284067
85.6462534106158
85.6041115223487
85.5692484886646
85.5380164976852
85.5324075617253
85.6271774126302
85.6997162985448
85.6289725774419
85.5968450025335
85.6059917038764
85.5841599484592
85.5728874364819
85.5605530096211
85.5375197740444
85.6166996336358
85.6846572490309
85.6679009719651
85.7622940228441
85.8109233409019
85.661372969603
85.5802843767982
85.6580259206814
85.6551864781753
85.519525429461
85.6565293316439
85.9168144483977
85.9627632649037
85.9029375778941
85.7946480185393
85.6747969047799
85.6258865046686
85.5597809216269
85.5840142990659
85.7481125038344
85.8200645243106
85.7583389542989
85.690433130815
85.7302206771128
85.8003358363351
85.8008553926792
85.7811560197389
85.7113872963784
85.6751648830244
85.7803536290473
85.7213668389423
85.6364116154063
85.8656972015805
86.1668632617171
86.1395019597971
85.792268262367
85.5913247810068
85.7078193876673
85.6804671730849
85.5196568629966
85.462560017991
85.4046071915328
85.227421423365
85.2392047565644
85.4508249492708
85.280082941795
84.9606105430599
84.6616424244029
84.4015210002607
84.3029365424993
84.0187671252294
83.5379246954099
83.1199358930169
82.636860360525
82.2687395293942
82.230074616236
81.7309309925799
81.1284446160524
80.728650582531
80.2350354972424
79.6437892090542
79.0908433362081
78.593962288127
78.3741758715494
78.2904815355625
77.8623632080173
77.3916627344221
77.4908903619495
77.5116827591196
76.9935957998663
76.5308866939153
76.0234724249622
75.6480844066177
75.971275711699
76.4962096711464
75.7575643326525
74.5857013113736
73.9249013556166
73.6535411067716
73.108458054324
72.4946177552819
72.0358523730257
71.6187288162729
71.1352643828292
70.7292629127232
70.446898043597
70.0374105632456
69.5673329301739
69.0359564864047
68.5566437164911
68.557516449232
69.1450976230076
68.8217810049661
67.8774877237126
67.5658127561204
67.2155377898916
66.5072535369627
65.8988902550476
65.5326303129119
65.4108531542058
65.2747722750394
64.9198723646786
64.6806588903567
64.8614355033372
64.9017502737151
64.870432719318
64.8283712255529
64.3496585597169
63.8312488798445
64.2117222739469
66.1336523441031
65.9617293711981
64.787966493534
64.1826119796646
64.5887633235526
65.8174714233867
65.5386004990682
65.035366756873
65.0270178116006
65.0816565351792
65.2997541265725
65.6964530201796
66.0954393697017
66.5223618779942
66.6203946772366
66.530349614132
67.0828423444282
68.6158621347297
69.618318545218
69.0932304637409
68.5322707611883
68.6834065372114
69.1478478041196
69.3898470243124
69.6333105553921
69.7392606471453
70.2862983381728
71.4644697457291
71.6385599707473
71.3581324167351
71.5638634350568
71.9773108896367
72.0709247949558
72.7176746138932
73.3561741219131
73.2274183636444
73.0719613312342
73.1877708899475
73.2418791736304
73.3694850997325
74.0051740044387
74.4547103422072
74.4060592147619
74.383679774596
74.4333625962962
74.5229819461807
74.6754377466057
74.7515317422158
74.8051231684623
75.2196983740632
76.3266832235679
78.1007859579107
77.3455107392824
76.0657831515399
75.3985433701177
75.2181243147927
75.5073863723191
75.9214821384475
76.5969979059062
76.6585271490438
76.0709044700728
75.7652492701466
75.7053973781488
75.6892932906255
75.7163891120559
75.7012073596674
75.6297597324309
75.7398935065263
75.6694376759373
76.2163504539731
76.8330956222779
75.6853617953973
74.6132900546135
74.0353429686698
73.6087203323376
73.2708381416326
72.887879017295
72.801521569299
72.8032378135256
72.2778861494154
71.56341662718
71.0432354762404
71.1670272628876
71.1014843426535
70.2574544428884
69.4993332402603
68.9457414028696
68.3947993885949
67.8409095604067
68.1923921581148
68.9247350486516
67.9921702857528
66.930781165944
66.3359213335461
65.9531010774546
65.6914032647
65.5309728530687
65.5796654758643
65.6012043471738
65.5178235520077
65.5689728242664
65.6010973654837
65.6157717667161
65.7404292625585
66.0394432952352
66.3202671610553
66.6139562328409
66.9496189057019
67.2956040925479
67.6921512545698
68.1125979118733
68.600074133416
69.1160042051842
69.6661845451144
70.2457485579356
70.7191569838866
71.2084703723257
71.7232059742009
72.2427241910318
72.7488553843796
73.2112799188582
73.6446194565616
74.0774897029215
74.490211994847
74.871946379419
75.2175303356534
75.5511711502779
75.8459231947388
76.1175675820624
76.3516720872118
76.5458251158573
76.6510743711474
76.8801642217574
77.883882826831
78.3503369016655
77.8933902040052
77.7006821529663
77.7405571155521
77.7729156925346
77.9009708606374
78.6735595398637
79.2385411954184
79.0266435943193
78.8014877746729
78.7228004943308
78.9524801098738
79.1878726240498
79.1551651187022
79.0702423094857
78.9718756074859
79.5234669766696
80.60564084977
81.6426063923054
81.6644795202863
79.7577490334076
78.3847791552113
78.1889092096373
78.4619718216087
78.050349620599
77.5939640038953
77.272835323771
77.4033118226778
77.3952714308938
76.9735884658932
76.5593262827466
76.19730838743
76.281974279781
76.4088634097999
75.9548905276367
75.8065768925999
75.8277742427046
75.3783428788696
75.5827057044067
76.12904630569
74.6898415320023
73.2225364361702
72.6012616592851
72.2818448133408
72.3912935824382
73.1967863348119
73.3119253039126
73.1288335136832
72.9906020772284
72.8859666930821
73.092957811644
73.593155515033
73.8862211452362
74.1578121879807
74.7707592126314
74.6741784030647
74.6368756173619
75.0233097731933
75.7052319070281
76.2388016433467
75.6476245718799
74.9210258614464
75.0367401445039
75.580679962213
75.5012208605496
75.4493516810447
75.2211752737013
75.1790583816147
75.6368473800892
75.7518050183517
75.8997167100079
76.2438267800757
76.5724792338406
77.2475132697265
78.3778732400547
78.9524276621065
78.3755453798444
77.9279148882372
77.964346377992
78.2777102204593
78.5949380944972
78.7571966904816
79.3286720719628
79.6490904999805
79.5922518606282
80.1064115798149
80.2549329171492
79.9921880079767
79.9701218561618
79.9521540227174
80.0128277845133
80.403080485909
80.8899307708698
80.728489221439
80.5584592463049
80.6458517662172
80.4958652871938
80.3499441927883
80.3110359844057
80.2797048035108
80.2387383912187
80.2956086660384
80.2325295919164
80.0172234534813
79.7724480441102
79.4366714084184
79.4277414396799
79.3398507748003
78.6350044176704
78.2966144359555
78.1720408699887
77.9611919569785
76.9290144686541
75.6282639428679
74.6686902306914
73.9172209610203
73.3596340769108
72.8102148614625
72.6807890075469
72.8853366228955
72.347139745671
71.7057449248866
71.2527559896642
70.8349372225073
70.5013124790591
70.4674003060883
70.4922162390504
70.9340989731832
70.7650176627339
69.3476835370147
68.1862403748556
67.3037736956905
66.9061621662521
66.7023078648628
66.4050274333085
65.9981596694391
65.7965303614392
66.029172165023
65.8605916249477
65.4867574193808
65.3482168050531
65.3518121903087
65.4924447118798
65.7506203701361
66.100260543941
66.5049818267492
66.9852607440743
67.3532548064582
67.7854400525543
69.2206805041602
70.2421728082438
70.3732820101052
70.6843837400553
71.217833786504
71.7772190236599
72.2399022413814
72.9347086428187
73.5733506049431
73.8568209200015
74.1463454182377
74.4024609227702
74.5860005250805
74.8531464799819
75.3480830083254
75.4436762685418
75.3979554525275
75.2242724148103
75.489696827132
76.2097525706094
76.0323808766379
75.7689595782727
75.5366727669247
75.3516573255989
75.2693028155823
75.2477594064173
75.2401882535642
75.2927622699051
75.267033889364
75.2153107064684
75.1275161958519
75.0105417378386
74.8577505180938
74.7273873073221
74.8641793531463
74.7963670369101
74.4834794818702
74.2373930355787
73.9844454854961
73.7308149952015
73.8084933632768
73.8583152109852
73.4867075420457
73.0595594234231
72.7752204228129
72.836228265144
72.7084868339245
72.1635864420929
71.7186161743699
71.4012103277741
71.1385557812193
70.8233159239971
70.6213877571982
70.7611752402344
70.5450933877628
70.075053901166
69.6893903402262
69.4301402489088
69.2290866678163
69.0726917604406
68.8662725082676
68.6837304085523
68.4758515085817
68.3281218961417
68.1131242087414
67.8579561627201
67.7408717226437
67.8173520344092
67.8777663842236
67.6332496843249
67.364251990332
67.1827697984999
67.0279065860983
67.0499508558908
67.0048645701884
66.8256244930717
66.6634867216493
66.458107391757
66.2537773449584
66.4552152532009
66.3799105894579
66.1506917173417
65.923238990125
65.5410092648618
65.2780450696161
65.1057846739039
64.9057205503463
64.705589441293
64.5683993184008
64.3497365224008
64.1032599433316
63.8992271066069
63.6891284921275
63.5044335360105
63.3598580051144
63.1951754495997
63.0071343918777
62.8489724301818
62.702530845343
62.5755495052609
62.4327463916955
62.282248815325
62.0591068171357
61.9954159364151
62.0650221705205
62.0424386285672
61.818387505729
61.5401021016863
61.3862960984827
61.1493529957241
60.969734857013
60.8187276003238
60.6850222345048
60.544080650852
60.4140273174734
60.2880544498376
60.1569653694471
60.020530259412
59.8998285582853
59.7819650786325
59.6743397301041
59.576929317316
59.4931290149609
59.3957942769111
59.3244948663859
59.2721939040273
59.2896208305135
59.3157075671216
59.2752752129601
59.2903873827434
59.2707281153394
59.313704212403
59.4076989468869
59.5541893606942
59.6923109252215
59.807532259666
59.9697557856399
60.1808275412366
60.4428024840613
60.7191502619656
61.0037085930661
61.3133780188388
61.6380845694519
61.9900011112119
62.3532214176011
62.72790616807
63.1169125229143
63.5096881809308
63.9043648971795
64.2990133548725
64.6933199439792
65.0909731689501
65.4704980070513
65.8437308238966
66.2065658627711
66.5633885478405
66.8982927935853
67.2166465425514
67.5023783997037
67.7821474668259
68.057882517306
68.2869646797799
68.4740510247903
68.6534367816036
68.8265585964507
68.9757843509367
69.1090551369063
69.2274100374485
69.326289369398
69.4016424935253
69.452623124456
69.4929007436711
69.5189142056867
69.5211674167256
69.4940868142929
69.4624794124623
69.4176394896409
69.3842656919805
69.3156034406199
69.2407488891464
69.1598376397848
69.0617528198224
68.960687868579
68.8588369583489
68.7545602456875
68.6338166812471
68.5100873619105
68.3847928764717
68.2435028404879
68.1043222469613
67.9654039542673
67.7967520329866
67.6200650398553
67.4325116722461
67.2330853760652
67.0257207436359
66.8074067187015
66.5746734401296
66.3290874548124
66.0769332462348
65.8192694581692
65.5562812527282
65.3042072253427
65.0527432109119
64.8010404685214
64.5533348596625
64.3091143287264
64.0759190455457
63.8212237596319
63.5524705259451
63.2828283306265
63.0248300758182
62.7676864569336
62.5047102406455
62.230575059672
61.9659456062583
61.7175713510156
61.4713854131058
61.2251396137574
60.9812770621397
60.7448744756283
60.5192217804982
60.2952269641187
60.0749769299027
59.853601595068
59.6456154541807
59.4353915063451
59.2322033916078
59.0372508838427
58.8364669604177
58.6337963149465
58.4473362225612
58.2715747676954
58.1069773141289
57.9476142655233
57.7997288519467
57.66209602932
57.5280748830176
57.3930083156433
57.2676409777834
57.1455797442028
57.0439186606455
56.954241026392
56.858912847539
56.7593755225022
56.6788658095181
56.6124016345602
56.5600290399038
56.5259893453508
56.5101952997903
56.5066186910217
56.5150291754331
56.5253893542988
56.5511269981501
56.5924500967809
56.6546302687097
56.7330219615612
56.8163349668213
56.898343401403
57.0054120130074
57.135941156723
57.2750562525798
57.4259522369551
57.5920071954002
57.7736743273275
57.9729624812005
58.1785797720785
58.393583579774
58.628889743519
58.8772802261716
59.1182023284554
59.3708406601783
59.6330813120978
59.8935476161569
60.1519680683172
60.4144776613916
60.6748053036814
60.9363409625817
61.1931077635005
61.4520973594006
61.7062533445535
61.9645297027541
62.2241501693169
62.4755344298265
62.7247913087587
62.9796231607916
63.2292161772516
63.4761212213577
63.7200334087971
63.9666540376817
64.2240840491408
64.4973324121007
64.7985967870387
65.1359687773157
65.4946117862089
65.8559908559261
66.222184375725
66.5950349229556
66.955210440524
67.3112329494412
67.6624492450469
68.0003295267664
68.3317083774989
68.6567219934456
68.9770839598438
69.2877746073183
69.5823462699212
69.8646330066485
70.1387630780479
70.4068926158075
70.6617181936017
70.9177635277385
71.1620713066452
71.3894466944854
71.609903294601
71.824369593225
72.0464009292027
72.2671182862031
72.4771095342959
72.6897257827682
72.8950336371003
73.0892280719646
73.2768924975422
73.454386681391
73.6217693414815
73.7695055460635
73.8993624668459
74.0114854148191
74.1034738203643
74.1801660257553
74.2323114578114
74.2579123552788
74.2594620887651
74.2238788356993
74.1584180939146
74.0854155860904
73.9998797542867
73.9113280043308
73.8082111250256
73.6938688558596
73.58229662697
73.4729750465507
73.3601653496826
73.2524032323564
73.154191172693
73.050308760651
72.9395293761158
72.8322036855317
72.7241034612905
72.6162606448576
72.49374803112
72.3588168225809
72.2184439918342
72.0552394243153
71.874592521644
71.6896671935527
71.4849048196651
71.2697058173899
71.046276589284
70.809718854964
70.5619988054404
70.3110435954289
70.0449642545304
69.7993778765835
69.5604737860525
69.3211104376283
69.1036897330617
68.9136874718753
68.7475552146169
68.6208886614405
68.5130490161399
68.4251115502535
68.3723622647154
68.3554416486795
68.3592168806247
68.3823694019927
68.4181175167368
68.4938202570199
68.595198341929
68.7080190837576
68.8417379702124
69.0056171675694
69.2036458940581
69.4190787659729
69.6489751835378
69.8881812503616
70.1255082777072
70.3601453035569
70.5881326869383
70.8024544685138
70.9981910222503
71.178743925237
71.3388455499528
71.4688785546994
71.5604608782268
71.6340341289286
71.6691522601335
71.6606268328644
71.6304583449901
71.5895510525421
71.5334370709217
71.4637639550466
71.3876796833154
71.3218939281945
71.2705844733445
71.2305647459629
71.1865129209696
71.1265661031727
71.0592030236327
70.9842859535436
70.8950634630417
70.7701813492367
70.6055561694598
70.3941791190782
70.132524356532
69.8394343020971
69.5039864205682
69.1180979521566
68.6928072567051
68.2410759308734
67.7666153384058
67.2928687349442
66.8239408046792
66.3615176918756
65.9155129842946
65.5028906473609
65.134291799241
64.8074096062019
64.5145361708646
64.2609812406745
64.0614201579587
63.9082166355212
63.7954197906637
63.7409704002676
63.7311595787408
63.7558174793437
63.8241994279885
63.9312025691278
64.0560597218557
64.2244782472084
64.4336976553069
64.6628306461371
64.9094629731898
65.1818664587552
65.4726386288929
65.7711322153904
66.0816389164128
66.3989448218074
66.7095468141016
67.0271962058175
67.3353248317739
67.6471144784745
67.9715516707315
68.2948147308931
68.6128468988842
68.9465688125002
69.2833747919367
69.6063494111811
69.9272604388758
70.2438932676943
70.5516656497224
70.861917848568
71.1536714874279
71.4285877168642
71.6981633432473
71.9461795858736
72.1754593796303
72.4075707929021
72.6356492042498
72.859460958517
73.0824801146677
73.3089169893966
73.5396189333295
73.7811131110595
74.0296086011161
74.2841875594427
74.5325658711631
74.7731797306256
75.0235151138904
75.2808727057774
75.5297509465987
75.792605842627
76.0383658835683
76.2607032992208
76.4832606933654
76.6892817533355
76.8646972406224
77.0205288950287
77.1597073791649
77.2742234406092
77.3516710091394
77.4014221154898
77.4272386251502
77.4287297654158
77.4221893567393
77.4030714903352
77.366685718442
77.3410897448865
77.328728394432
77.3215337238218
77.3008428469263
77.2712568696594
77.2583306079002
77.2561104013207
77.233981789917
77.2212538531422
77.2116920408819
77.1905273759425
77.1673426895089
77.1368203916066
77.1030891032728
77.0867061575911
77.0679771243233
77.0253029204311
77.0000616671209
76.9966246986025
76.9741218913402
76.9589540427086
76.9433404930402
76.9368144638512
76.9398119778025
76.9472394213402
76.9578129534482
76.9746461485804
76.992154850342
76.9988800673626
77.0060745275068
77.0312986553819
77.0500755081308
77.0539112656417
77.0646810345694
77.065733264609
77.0686842735117
77.0767131542323
77.0755270922539
77.0843526380902
77.0986006486178
77.1149275366253
77.1342275547885
77.1485088818047
77.1513195259355
77.1719425842654
77.1840601448244
77.1976507986473
77.2239355496712
77.2392562986327
77.2676856052719
77.3226666352923
77.3623942553442
77.4099099987841
77.4922511163891
77.5835976108115
77.6806214837114
77.7669918823314
77.8541632944161
77.9432755103088
78.0374861772352
78.1378238794266
78.2299741576
78.2947536569576
78.3571311035507
78.4174142386489
78.4672118421476
78.5273790365033
78.5630713709757
78.5803907887805
78.5953653195224
78.5971571144675
78.5925877568069
78.5963694921551
78.5825957212732
78.5621528388578
78.5443538384937
78.5071675878041
78.4723820453985
78.4524902831666
78.4199286143392
78.3555395881959
78.3102449348964
78.278345408403
78.2021254541229
78.1248212232556
78.0383749818571
77.9242932761395
77.8283114123015
77.754303214142
77.6505450046368
77.5084177305939
77.3870893953442
77.2798800044462
77.1489875714348
77.0016655517132
76.8752274648195
76.7611858487955
76.6155994480602
76.4754525603052
76.3467878270956
76.2086497490686
76.0483216385786
75.89358728944
75.7595523291692
75.6167685696047
75.4540684883481
75.3322264090388
75.2174733791572
75.0938958844604
75.0138476005043
74.9858840175472
74.9533379831098
74.9372283522574
74.97654962592
75.0558496805517
75.1643163258089
75.315152044936
75.5009526901436
75.7079314257193
75.9049591729537
76.095532587155
76.2807700079084
76.455962583214
76.6171484521334
76.7413715231741
76.8424637867359
76.938163303251
77.0171076370057
77.0772034537395
77.1160800345693
77.1503798237825
77.1638967005392
77.1799266715295
77.2192809021907
77.27572571512
77.2948663808541
77.2813330654154
77.2968435973801
77.3428953531506
77.3525341806936
77.3456482836258
77.3407414431984
77.3152994728769
77.2650004127858
77.2344729705686
77.2060209799409
77.1280455286133
77.0632469617901
77.0140519846652
76.9431147575023
76.8648183236195
76.7895465309757
76.7083367146405
76.6273113373697
76.5691920897594
76.506240337877
76.4081375009091
76.3037934099185
76.2548701926458
76.1916056367944
76.102156852271
76.0484263627484
76.0349105410227
76.0412195109018
76.0595987507969
76.0738576841335
76.0658687015174
76.0520940651047
76.0648003528267
76.0127096416438
75.9900158966798
76.03116996092
76.0708158084402
76.1135229608858
76.1187697543118
76.0987177864622
76.0996730201411
76.1006130906579
76.0739836578407
76.0483614299712
76.0432049950158
76.0202471628186
75.9684439251295
75.9162150679814
75.8790047012223
75.8162775310721
75.7642772502567
75.7420483711158
75.6676612189261
75.5453246041764
75.4458184547417
75.335809777256
75.1976041597462
75.0645016008619
74.9488878387534
74.8294346649579
74.6718408105637
74.5420224381177
74.3935785926261
74.1689698842277
73.9845385603829
73.8278923595294
73.6776220527082
73.520745582831
73.3731724470164
73.2210268078263
73.0700846752269
72.94388985133
72.8623304242221
72.7734048483177
72.6701336575189
72.5917444821112
72.5033289035281
72.3832043272043
72.2517873346291
72.0432553078117
71.7725336922328
71.4781376676521
71.1541637522585
70.7966888467804
70.4008281688764
70.0246061794904
69.6508425059778
69.2422696527816
68.842396760447
68.3882771620717
67.9379752937015
67.5647214152308
67.2531484146793
66.9714710216743
66.8034523489557
66.7624160903259
66.83316403715
66.9959609284271
67.2583352482565
67.5895698615202
67.9111272878746
68.2556486141964
68.6537346770663
69.0237636500028
69.3982712773818
69.7745603412188
70.0426243321817
70.2427196889094
70.4434277510401
70.5717994979858
70.7124186866505
70.871287684534
70.940309325604
70.9259356162306
70.903106211992
70.8681648698899
70.7987192735269
70.7243926447264
70.7324717321592
70.7884899967672
70.8820531532391
71.0599503001025
71.2620910996214
71.4565031737161
71.6417023731873
71.7985145646221
71.9260897886662
72.0091302252921
72.1050399283748
72.1588241440942
72.1611113067914
72.2614628022185
72.4762587673031
72.5685928899818
72.531104336755
72.5317056572761
72.6375866683122
72.7088290508483
72.7461535891677
72.83315713647
72.9561599044262
73.0852238858809
73.1878236282274
73.201936238823
73.1978289632966
73.1820368410925
73.0698692029868
72.9634092976741
72.9807235832189
72.988987369914
73.0396627295412
73.101205904404
73.1212647784553
73.1569077098977
73.2448305267309
73.3352515933528
73.4601726696605
73.5284911741185
73.4718175767065
73.4010658573303
73.3836961672052
73.3702810581428
73.4246730602168
73.4940710440853
73.5484937075427
73.4961669622867
73.4830403959486
73.6384424565553
73.7471407147931
73.7522200569627
73.8500757482981
73.8534574044271
73.7796775024317
73.7986597778898
73.9054465937337
73.9260303972342
73.8163876272567
73.8853697554553
73.9888839361596
73.9744625543172
74.0609984752139
74.0814322106735
74.1354309011071
74.358737940934
74.4926330189596
74.3533910239643
74.2674069721951
74.3250114063503
74.3605192137508
74.2176290170486
74.2006369954287
74.5853041319017
75.6053949900838
75.5783802581392
73.8275931110998
73.4595198652433
73.9345676376273
74.4553557684167
74.6876089888316
74.5592971911304
74.4414035251063
74.4415448009014
74.3818809234889
74.1367808981526
74.0254324695489
74.2158154803357
74.1747468750763
74.1124351350321
74.5103003383686
74.7659111695807
75.099344536411
75.1990142295185
74.9905102147211
