3596
4000.36533379555
650.420452594757
1
128
2
100.071166658413
100.052664932982
100.015157130575
99.9797674959674
99.9661418822059
100.021220595465
100.01052306168
99.9513393490875
99.954544946055
99.9542920201888
99.9643359448617
99.981353937842
99.9918442499414
99.9694060117898
99.9774985337399
99.9714200650433
99.9514381096779
99.9745629645061
99.9826882599785
99.9589762031777
99.9828687243361
100.058961491092
100.077834353125
100.035880872703
100.017803126841
100.013282624145
99.9862981620911
99.9543597025748
99.9921090961357
100.008836627136
99.959012443448
99.9961476991148
100.018060638758
100.000351865306
99.9884295287319
100.008600534042
100.077328365395
100.091435030909
99.9840681578945
99.9748029736273
100.019329719274
100.049478307633
100.046295141051
99.9826421228359
99.932154820751
100.001339513613
100.046490335653
99.9965025463647
100.039464099766
100.218132543897
100.194625802674
100.080082311833
100.071108702994
99.9152799741332
99.8184843405579
99.9074525745106
100.101774034267
100.298803788094
100.06634163202
99.7503939725927
99.814632533579
99.9290161305411
99.9275433471136
99.89495938496
99.9059656975911
99.9753573959331
100.020090138827
100.14170448822
100.362421986133
100.254419238091
99.9439185843465
99.9666735013172
99.97602626483
99.824740571426
99.7841743150643
99.9899632834928
100.290710541815
100.231586452252
99.8734072129313
99.66615195826
99.8303600840666
100.208982670896
100.155529146364
99.9161995855837
100.244927445203
100.409853720248
99.8707044708814
99.5565929933095
99.7179289308339
99.8819983105752
99.8829472925209
99.8790120096233
99.9088793880085
99.9963542023266
100.020754841845
100.030517287954
100.208970439967
100.453959269186
100.657521309379
100.419534400512
100.156380257802
100.331156993092
99.9932630704668
99.9614445729207
100.298392833303
99.7496760939684
99.3468192160104
99.5049339472332
99.7182279350476
99.8863529739473
99.9489457611708
100.192909850092
100.626468940794
100.348151817862
99.5970809463114
99.4941290628034
99.7237374446452
100.220919778982
100.89593605485
100.561833816177
99.6887349441798
99.5715161818324
99.7251940152065
100.247027493907
100.74981306272
100.120482536287
99.343912509733
99.4483825611607
99.6668266041753
99.892786206807
100.46809136911
100.604794277958
99.8482003531021
99.6017482046908
100.287056948682
101.052028428796
100.773211688669
99.5420941734946
99.1233224906112
99.6610597508219
100.515166454635
100.623845142713
99.7952381012788
99.6818624332422
100.081406228841
99.8615583589352
99.4931174320065
99.6229887329504
100.069870997704
100.308077420799
100.096744270812
100.471709083339
101.485566091002
101.455716387919
100.6333825787
99.8657734892459
98.974171798687
99.004977382115
99.3513665627176
99.5150719438628
99.6407370225059
99.7389238174945
100.005230228207
100.456861811674
100.337533422639
99.931180774244
100.260196064843
100.543246446123
100.265111122939
100.554625712118
100.7585552305
99.7679659988145
99.674961845153
100.117376189744
99.5902819553057
99.512094818237
100.255883284303
100.233969235302
99.5410815796211
99.4768796454045
99.8460235149517
100.233236440588
100.275933211563
99.8829089032882
99.7412453743343
99.9188312410849
100.35224755961
101.063356918784
101.190184592106
100.051039808878
99.2002520515711
99.3725949086182
100.165749603774
101.001622800909
100.382953777502
99.2116186188385
99.2326205503815
99.5713049341079
99.7257544569054
99.812597557023
99.8831936078125
100.031916920736
100.631342752435
101.032272345786
100.234571788389
99.4851202861839
99.6612498288306
100.203600616346
100.839251715975
101.116496403041
100.178222849306
99.1932314387554
99.3687170955545
99.9813841723185
100.344663009896
100.022865733096
99.5149371683978
99.5617955269891
99.7671659151356
99.857103549761
99.9091491992973
99.9675749127945
100.028776037736
100.000291203877
100.005507450465
100.082325133587
100.277457959182
100.297000642764
99.9781226584755
99.8371281913671
99.9136338208274
100.151352048502
100.56499139898
100.451875440555
99.8448701004066
99.6829926249455
99.8257639546239
99.9356815441876
99.9917893536827
100.000322952322
99.9997219928093
100.154225954538
100.580371350629
100.734165045677
100.0567388642
99.6147046738189
99.9665041603673
100.439627936277
100.191058635636
99.7264556227265
99.7552318817111
99.8540715971996
99.9729379722986
100.457700065336
100.606598012036
99.9906609326693
99.852050912021
100.15893805766
99.9683051096253
99.7825516342801
100.147767028735
100.898698398915
101.162834564845
100.37047911878
100.457514811695
100.826474004567
99.7755620624885
99.0867706339703
99.5361621868205
100.812702550148
101.808026991834
100.365200086396
98.6867373893746
99.2336210131134
99.7435421568156
99.5696464295609
99.7870519150517
100.212688994648
100.538156208738
100.843510245548
100.991600507705
100.115204909322
99.4490864554282
100.142241916146
99.9266901353095
99.0705305538781
99.1010783693761
99.4916708331781
99.8987173169656
100.272177097851
100.249407832944
99.9807525150173
99.7678200049022
100.097025194329
100.39657224503
99.8152257611933
99.5330387295143
99.9918595239063
100.037306078791
99.6806444836692
99.6977830541808
99.9199084728954
100.015323662258
100.065304886099
100.658729534085
100.997092370066
100.210294362956
99.9378132928693
100.056234578711
99.4805811163875
99.2587932200221
99.4871212169235
99.655178153241
99.6763776067029
99.7862872417289
100.232561266472
100.530698358352
99.9243998508012
99.4799263397726
99.632794516832
99.8245493932604
99.9333830057284
99.9478979512754
99.8755578361062
99.8805729813416
99.8937366199765
100.127603139724
100.576461542319
100.361258317839
100.153604022761
100.766569819377
100.361106614766
99.224434219218
99.1081328454191
99.4483679627781
99.6179401186097
99.5725770605268
99.5775629791856
99.7312726301869
100.060470115007
100.20369959429
99.9031115500872
99.9931562166418
100.727584475496
101.386058749316
100.749639788193
99.0940020523467
98.6215195411404
99.492034386493
100.588504515768
100.516702480807
99.9042126676254
99.382653898565
98.8302525893095
98.9856646797584
99.3394763954248
99.5718927273665
99.6373508091982
99.6575618775258
99.6476689801994
99.6795184393688
99.7136072457727
99.6843288412874
99.718535082175
100.252995504562
100.538385532172
99.7475694788442
99.1769504081659
99.3388420544122
99.8361532740437
100.548360953133
100.761452319301
100.433012962714
99.9830719183856
99.9396969917925
99.7436230487039
98.735767438567
98.4339226471725
98.8767612325258
99.3232084595063
99.4100948515839
99.2846842605048
99.2414760668079
99.3500324011638
99.5337373509
99.5332945218076
99.4017034101995
99.4316402955544
99.7133643829796
99.8265457746452
99.4454731259526
99.2255764380079
99.5428238300632
100.262332175113
100.748565588249
100.007019587529
98.7582627453033
98.6019036723927
98.7816239610082
98.8459749423938
98.958292861927
99.1054920856317
99.3032014136805
99.5864045511817
99.8472841324006
99.6288699617568
99.3653818902016
98.8983833659615
98.6818405557944
99.1771741661431
99.3149762934762
99.4064438536502
99.415837575132
98.7871563788453
98.8041221044899
99.4492209679286
99.3207223900349
99.0442534749619
99.0038635506721
98.5611774525153
98.4457690864064
98.6540815207558
98.8196860904799
98.9512374974919
99.1642214511495
99.1108099711772
98.9045605933452
98.8786520981164
98.8144051821095
98.8869142775925
99.0590899678421
98.8095618270615
98.6962998019419
98.7124987562454
98.4993236788181
98.4478902072965
98.6609070272453
99.150323675736
99.2799111760871
99.0741198900748
98.7586071795805
98.108472485601
98.0089229948258
98.2489002771818
98.3150970921766
98.3201460675958
98.4363016313742
98.4622346180301
98.3145406670526
98.2635413861032
98.3357040220731
98.2717051035232
98.2532601827526
98.2766224395805
98.181345488876
98.07590917503
98.1158171694074
98.0972189397415
98.163695126674
98.57129117061
98.667375393026
98.4107248455546
98.0279491858316
97.4970470559439
97.4672306356457
97.6174751067949
97.6374941638923
97.6901170643285
97.9348617454451
97.8997663191122
97.7656700440909
97.8126392928498
97.9157265857081
97.9612251542695
98.019847765104
98.1095304224022
98.2070419810466
98.0993840705269
97.8443531866545
97.8341175826779
97.9409781091423
98.0317119315155
98.1788288634431
98.1303298611999
98.0765016235911
97.88653899235
97.6735494268996
97.6591496687052
97.6983046122989
97.7622728727742
97.7984431629999
97.8212418512289
97.8647664778562
97.9958853095161
98.0403733255741
97.8298145953322
97.7238871372617
97.7101860861317
97.752552553387
97.8350317756959
97.8388070712563
97.8413297056111
97.8088972849989
97.7647194684034
97.7782684513186
97.7131618197423
97.6412607500134
97.7016435529089
97.7793659458218
97.5557217911708
97.4098211994216
97.5064299019255
97.5840732333743
97.5313290797232
97.5344003956496
97.5431266553678
97.5274255152159
97.4928230270921
97.5105367966691
97.5498081493317
97.5601757799592
97.5412722715894
97.6546528030272
97.671788827912
97.4990827059149
97.351379263268
97.3449988418086
97.4504929739102
97.5512857046132
97.5897402115395
97.5315990853104
97.3764037617112
97.3015221751147
97.2799893653521
97.2625869219529
97.3163956693918
97.4345741301178
97.4256383927027
97.3344238178167
97.27791352499
97.2514437317809
97.2533269398767
97.2963032963974
97.2554129880295
97.22588787869
97.3364262507523
97.3831788542732
97.2707714549593
97.2308034856953
97.2309191806268
97.2327146318323
97.320608907228
97.3797717006957
97.2663847569796
97.1548734002946
97.1064503651455
97.1409483186104
97.1667627075367
97.1798945216815
97.1567266435735
97.1334563183587
97.1165587559752
97.1386161114457
97.1491518207056
97.1348926345703
97.1062736909281
97.1252948198794
97.1576310907403
97.1434194466126
97.1021755385755
97.127475269524
97.1089450798544
97.1375286789949
97.131110532954
97.0735849555512
97.0076678715691
96.9958540269148
97.0287217765148
97.0438411791346
97.0524648118478
97.0235053018551
96.951951508779
96.9688380938896
97.0167246418992
97.0113118622555
96.9813813943532
96.9719644585484
96.9690718311566
97.0329460383874
97.1870579754641
97.1886324353
96.9595741306177
96.8723042104911
96.9160840645809
96.970129215624
96.9004193327407
96.8510689531696
96.8594755551886
96.8552373974514
96.9007724396809
96.9578458597375
96.9312420975003
96.9385362451606
96.9566377125285
96.92102888638
96.8724856046453
96.9202717683357
96.9212898513855
96.8778162358267
96.8310504290277
96.8619494461175
96.8570447338792
96.8123976189466
96.8482869441867
96.8661177880857
96.8477068382234
96.8699793934374
96.8328692827618
96.8213873700451
96.8000717457403
96.7539014362826
96.737401972754
96.7158136711683
96.681558771024
96.7055564862509
96.7556762612042
96.783731603795
96.7857922857366
96.793874783612
96.7680379239237
96.7758252407072
96.7920428431089
96.7683053035219
96.7196311746187
96.7445112078535
96.7564560142383
96.7171555729043
96.7136749127081
96.7697678428912
96.7928315205411
96.7739378187085
96.7619420439635
96.7607626509643
96.7543415121872
96.7194208058812
96.6908611493815
96.6871360173941
96.6778724742758
96.7167846243265
96.7010405238071
96.6990305765867
96.6861070143778
96.6586762797036
96.6643490604566
96.6795754368393
96.6697904658641
96.6544011354599
96.6510645030671
96.673935323488
96.6840411711249
96.6845047019558
96.6972091047923
96.7165641718052
96.69843987587
96.6665474719497
96.6530673021713
96.6920117296865
96.68455625261
96.639493488819
96.6073786136365
96.6339010832932
96.6781975196549
96.6786446699951
96.6488665244226
96.6607250242158
96.6676815788393
96.6800235147081
96.7039957463252
96.6987803035756
96.6134112590715
96.5633561992195
96.5924551870495
96.6225019608973
96.6364621449976
96.631610604715
96.5772389703783
96.6096617628312
96.6708162567124
96.6454290383502
96.6029184845061
96.6052506813423
96.5900675905948
96.5984007690765
96.6337461836658
96.6653362919132
96.6475147049957
96.6481943080771
96.6591301159061
96.6232371050737
96.5866583383695
96.6226083678498
96.6446021359032
96.6633553655057
96.6746429760523
96.6658262576497
96.6439977166108
96.6650809725878
96.6731907067109
96.6580143011823
96.6072283034626
96.6327696594021
96.651050584978
96.6323930958019
96.6733924050058
96.6779220991566
96.6336188523365
96.6531359216173
96.6654246803541
96.6666808846327
96.6405311963677
96.6488280483047
96.6740870108277
96.6702006700868
96.6410203977021
96.6298383981015
96.6255537008794
96.6409431989867
96.6710864059446
96.6739876613145
96.6646533922819
96.6843471613836
96.6925422464064
96.6941183422809
96.6843232764202
96.6819509159683
96.6655477570199
96.686110508728
96.6790865654171
96.66053976166
96.6300442282887
96.6316846936656
96.6705806152751
96.674679619268
96.6330906759786
96.6545341832043
96.7124358246194
96.7212967583419
96.6834141397038
96.6489065661
96.6198376053806
96.6717130919641
96.733939680504
96.7213026177619
96.6497642652267
96.6404766864475
96.6639443966205
96.6873852010603
96.7014923827985
96.7084456730733
96.6907266707937
96.6535818817354
96.6318388697514
96.6516728011455
96.6605248055034
96.7033069471772
96.7327305089619
96.7222746718985
96.6767920926506
96.65018877795
96.6512091440092
96.6673832683971
96.6840442947344
96.7142246375051
96.7032533719116
96.6683459439898
96.6550554376244
96.6586485467593
96.6383004879649
96.6491730847239
96.6648118659286
96.7018201581702
96.7135650490085
96.6655637352986
96.6457545304381
96.6887661234988
96.688766197392
96.6794554601189
96.6667406141229
96.6563939184432
96.6748312311962
96.7033926344227
96.6814230827125
96.7041905311548
96.7250463511129
96.7146647399215
96.6865877235169
96.6926388190538
96.7057434764521
96.691727590381
96.6720697088871
96.6833717745903
96.7166828249712
96.7266701712528
96.7132865568178
96.7229222395415
96.7159984125596
96.7284728016625
96.7292635411825
96.6954687521296
96.7008294951796
96.7187194581007
96.689486669965
96.6729175602208
96.6631628997993
96.686961433499
96.7034049524344
96.7294351795239
96.7375362553495
96.7234982512561
96.7194926702235
96.7098836346634
96.7036203825617
96.7294982830289
96.7055683078104
96.6955990846472
96.7261890533216
96.726885320901
96.7025878004337
96.7214255132463
96.6981935440079
96.6836783046688
96.7262470850673
96.733875053221
96.7056885692315
96.7515919084026
96.7763821564064
96.7642574720351
96.717331568584
96.6858625422879
96.720012685501
96.7717996531524
96.76421167155
96.7747605815734
96.7745204633827
96.7561209954021
96.7357065149871
96.7228976191027
96.7360855683094
96.7783978172385
96.807507480948
96.8231140510525
96.7837030825922
96.7580322623366
96.7643157178644
96.7804512908353
96.7871962788835
96.7909918869521
96.8132141804567
96.8453255745433
96.8099404171327
96.7667870757789
96.7763590775197
96.786381200154
96.7894709314297
96.8233349192849
96.7899551005747
96.7728106194055
96.7944766674933
96.8092974190524
96.8217570072431
96.8552139802631
96.8603690333955
96.8408279771877
96.8480258995876
96.8962209300932
96.8981027440848
96.8895231571413
96.8657619544309
96.8523469309669
96.8147148784709
96.7998718158521
96.8428212599051
96.879642636311
96.8805661935101
96.8736563027082
96.8915065743133
96.9338503040191
96.9136061900052
96.880378407587
96.8788839366367
96.8988821793645
96.8959518725443
96.8991878606847
96.8935873262995
96.8985487053597
96.9229213773883
96.946098659952
96.9385528093349
96.9487455648514
96.9551863331277
96.9607669354968
96.9384969753626
96.9306829925526
96.9576547772838
96.9681321888897
96.9651448323004
96.9841258155911
96.9851799946723
96.9836889673098
96.964935658649
96.9576911113326
96.9612071523894
97.0041786565864
97.033270908937
97.0143359246375
96.9752592027677
96.9719764540539
96.9996400525971
97.0127023429586
96.9941464505343
97.0225355210447
97.0509353926417
97.0506988239557
97.0422426329442
97.0425209783627
97.0555761572288
97.0939312349166
97.0861621538072
97.0315732334209
97.0247395540617
97.0774027666994
97.0988304140112
97.0880217769407
97.0699533525226
97.0707677236436
97.0442957023029
97.0409030309369
97.084966078292
97.136728020136
97.1123542088271
97.0818409832531
97.0893134003119
97.1349603362106
97.1584043018816
97.1382318066923
97.1496077181495
97.1557554695243
97.0966724079696
97.0916749505045
97.1223868206273
97.1393035218879
97.137688995845
97.1502997394764
97.1404995245563
97.1332879741795
97.1513553802891
97.177772545951
97.1666095386647
97.1675182817696
97.1836161477876
97.1917381233027
97.1876057375772
97.1982677887851
97.1815508973081
97.1860566658156
97.2291375697231
97.2627231597664
97.2470310581885
97.1968192622591
97.1705098757148
97.2000975059866
97.2040176799896
97.2156843036872
97.2420362839431
97.2514942752432
97.2241350642918
97.2416672570477
97.258797027475
97.2494902545872
97.2624201555111
97.2927922058306
97.292722381923
97.2945839687847
97.2773846007422
97.2729522535848
97.2587158616462
97.2833542701203
97.3044697075725
97.2866313314045
97.2602742842729
97.27192510762
97.2995822934057
97.3167140022976
97.3040575329121
97.3099837361205
97.3229530745641
97.3331524353314
97.3532294017448
97.3605932936619
97.3397079314698
97.3585094008583
97.3439821230011
97.2997316652298
97.2909189928612
97.3064871149793
97.3186384996415
97.3334112715699
97.3238948125367
97.326400613944
97.3655529061433
97.3877414853469
97.3731449215994
97.3932520811966
97.3990137641988
97.3831139644778
97.3727024155799
97.3991239290329
97.4342378998323
97.4326216040199
97.4090007863411
97.4235799757842
97.4239169493935
97.4159527619732
97.4261560568586
97.4260107531251
97.4280559905032
97.4741131254609
97.504893500135
97.4946095029982
97.4366331405824
97.4376161491214
97.4594603618521
97.4499361163671
97.4592926176818
97.4956175389364
97.514682775529
97.5190504061935
97.5010527048477
97.4865955053973
97.471307452597
97.4954554096842
97.4872056667944
97.4854270415676
97.4873206587956
97.5152225868566
97.5391130639239
97.5247553957103
97.5044459090939
97.514196014014
97.5266447192118
97.5472917474975
97.5565879402939
97.5615433501181
97.5432221867289
97.5277536049508
97.5359568129087
97.5835547552294
97.5698816161925
97.5502439020393
97.5657955248829
97.5640973337257
97.5720211679731
97.5852691769136
97.5762539887431
97.5806979605038
97.5893909024141
97.5891952256025
97.5910987381232
97.6009114508923
97.6049537228653
97.6109948978246
97.6068360679025
97.6234982414012
97.6457475533892
97.6641928417258
97.6533811920121
97.6314537157056
97.6452297221445
97.666795850468
97.6552826505131
97.6439422572877
97.6533004920981
97.6784201743357
97.6766464980689
97.6679955236424
97.6506251586049
97.6676379395631
97.6925862472794
97.7105067143061
97.6983303419378
97.6938638435972
97.7058606944761
97.6899839041528
97.6642427205799
97.6725260680365
97.6841731342607
97.7098757547156
97.7292913876993
97.7463111990131
97.7571175076962
97.7691016847559
97.7720892944916
97.7541741961141
97.7423231529504
97.7713022388536
97.7822684914571
97.7796946860907
97.7677248555133
97.7574104309307
97.7664916887006
97.7855934199032
97.7955507558781
97.82223855291
97.8294806456828
97.8119100312877
97.8026972548171
97.8229988502829
97.8450116322524
97.8626622785034
97.8511089550042
97.8227318801093
97.8337057080149
97.8750703729319
97.8911670368139
97.86325958299
97.8226261528925
97.8317033005811
97.8489887669934
97.858716185364
97.8651755952606
97.8824650338896
97.8920533098481
97.9064622574456
97.9148598561826
97.9587044842282
97.96122840353
97.9451192187202
97.9477784317966
97.9501525830387
97.9607733049973
97.9682298820285
97.9940767113994
98.0182545781668
97.9939308232374
98.0015893145889
98.0394396478663
98.0986588420036
98.122247153096
98.1270421971631
98.1253475460692
98.1371314012423
98.1494186683036
98.1627673691268
98.1573733474385
98.1396846259655
98.1155988723953
98.084033067249
98.0936148002969
98.1365747819449
98.1472246781901
98.1268106520338
98.0898741745844
98.0997778943208
98.1210164339176
98.0978841069448
98.0875583760132
98.1205414077657
98.1494220248836
98.1491354855428
98.1196181111911
98.1174640545393
98.1409044295688
98.1389280124208
98.1133845727344
98.0933155365053
98.0909060265789
98.0956979428417
98.0955787662371
98.0773964937509
98.080482602932
98.0939877811026
98.0924861353118
98.1322263132659
98.1553404692834
98.1198929002442
98.089827360964
98.1165599105414
98.1244273736492
98.1102715553888
98.10787127179
98.1283327184923
98.1393868701493
98.133276632019
98.1309749248064
98.1258115041095
98.1375840839114
98.1290572375876
98.1025904368847
98.110513773231
98.138980520458
98.169174547739
98.1560754255311
98.1671458879179
98.1711728168286
98.1591873240183
98.1700526377377
98.1819154644482
98.1788989330642
98.1823132123928
98.1907202144183
98.2114042877861
98.2231957170126
98.2152796347671
98.2194838763668
98.2145674216052
98.2135028466464
98.2303195647134
98.2302634663567
98.2379537174607
98.2366663147144
98.2595358537924
98.3000729936501
98.3017540255379
98.2879517232667
98.3021808292231
98.3369659274724
98.3524406459289
98.3277041962384
98.3297423658238
98.3511906844354
98.3745156017229
98.3515102221812
98.3520951735177
98.3828357004823
98.3780920609052
98.3531719835456
98.3438150276317
98.3318985851072
98.3243420754664
98.3263267739732
98.3174862108006
98.3033517281748
98.2752004294781
98.266724730218
98.3268532110226
98.3496946015825
98.3127861468186
98.293363513933
98.3137919702732
98.3317055745255
98.3369006946298
98.3350800045299
98.3269855754508
98.3386386161034
98.3400218673268
98.3237414719777
98.3355118893274
98.3466026877053
98.3569854649603
98.3611788917592
98.3656525621933
98.3691671673709
98.3575514777227
98.3443482997611
98.3508700558527
98.3636925151111
98.3901422619789
98.3899483968467
98.3898695412974
98.3920564285457
98.4055598851755
98.4175020397341
98.4123062506725
98.3908012811673
98.4141802674004
98.4523656100747
98.4306958192479
98.3837020847232
98.3859228821624
98.4302158758624
98.4619032155744
98.4366134331848
98.4172759335428
98.4134766887715
98.4269797999626
98.4484622382121
98.4705763947321
98.4723419400473
98.4608779785784
98.4441162691479
98.4403808107021
98.456507741998
98.4705054691867
98.479218685094
98.4914561035256
98.4988004382244
98.4933346751361
98.4947839426034
98.4930110192597
98.4920130267427
98.5039141197857
98.508387148892
98.5143291765502
98.5142029737207
98.5217870440174
98.5291236088109
98.5377389703069
98.5270179389199
98.5362885774373
98.5442062463341
98.5181092820942
98.527291547048
98.5600230426618
98.5583113607774
98.5500535651376
98.5597288381485
98.5660088723264
98.5558172530143
98.5655319566983
98.583130085789
98.5903580185761
98.5864478607573
98.578576716042
98.5669315941305
98.5880348420484
98.6108996068691
98.5956917012442
98.5924182235748
98.621861025946
98.6318340763386
98.6130569176226
98.5928049785814
98.6099275725559
98.6177087566841
98.6145092998872
98.6373751249169
98.649814999465
98.6316980284732
98.622835204866
98.6368963116447
98.6530988833425
98.6539463276279
98.6618431820232
98.6557047397767
98.642101441395
98.6550386508052
98.6779913393034
98.6858045561432
98.6864251827219
98.684663059575
98.6824588314858
98.6793936505242
98.6685178639457
98.655977680172
98.6757953002909
98.6889537418539
98.6980126648185
98.7158714399222
98.7242932424871
98.6994266064059
98.6949162099386
98.6993908068897
98.7259316059405
98.7295402997306
98.7159828475344
98.7349693619555
98.7581637582166
98.7464917892135
98.7367102030917
98.7421371067492
98.7546009495377
98.7430323580761
98.7430674566914
98.7553664039789
98.7549119664124
98.7704729291406
98.7828980965467
98.7722415995031
98.7560564843967
98.7644276620469
98.7619623907554
98.7482930787504
98.7428075358716
98.7614805550677
98.7775728160099
98.7779152856669
98.784861796225
98.7968046049897
98.8153690267863
98.8199425368105
98.8204486295676
98.7991005216898
98.7894714505243
98.8047837723031
98.8446608783339
98.8508764168657
98.8159902476428
98.7968251401857
98.822054702614
98.8254902256635
98.8215443211578
98.8309744454492
98.8210129423236
98.824495783143
98.8391888753622
98.8384012417998
98.8431738964256
98.8422024558814
98.8243763622879
98.82573317919
98.8578587088416
98.8554649112719
98.8449402004177
98.8498669154987
98.8634917168629
98.8625592495505
98.8709232490549
98.8810628079272
98.8909075244196
98.8811511441278
98.8737871287421
98.8664102188429
98.8809594122139
98.8818077343189
98.9114187283485
98.9213287918037
98.8896169333868
98.869463031202
98.8861336355408
98.8993320616221
98.9005045230101
98.9039022247183
98.9149055081249
98.9359067045514
98.9245184986334
98.8943534539596
98.8960032461592
98.8937409990661
98.8961959451605
98.899766114209
98.9024198548389
98.8982646872448
98.9016421133953
98.9064071747161
98.8993442557238
98.9029428186527
98.913075473702
98.9316610669909
98.9499616065332
98.9395300738677
98.9232520012252
98.9329914843833
98.9380464574073
98.9344076975872
98.9517775735535
98.9530995372188
98.9404528446926
98.9506159175846
98.9699319237737
98.9617802782277
98.9549627122211
98.9767604043226
98.9916888406897
98.9944449485469
99.0029692785066
99.0066994149348
99.0189803308575
99.0272341823956
99.034646690024
99.0425979820734
99.0492071474353
99.0725637190647
99.0867275317599
99.0479136493917
99.0277467103991
99.0553616773327
99.0581993044515
99.0451402609781
99.0504411961739
99.0694823527745
99.0707040822819
99.0651259930505
99.0707342828827
99.096608424524
99.1417178767269
99.1495772603673
99.1342551748257
99.1253402552722
99.1392601444648
99.123554379876
99.104550527407
99.1127187763764
99.1330640400688
99.1215749640966
99.1360330893664
99.1629681478844
99.1833899188386
99.18891991897
99.1612154454299
99.1580424801937
99.1888457288221
99.1803741566876
99.1606290357225
99.1820940142803
99.2047277840501
99.1872216730485
99.2016075342752
99.2131012541442
99.2030598028481
99.2252588738957
99.2390143394828
99.2121339028601
99.2125167878536
99.2141943494703
99.1971704715564
99.2119204300474
99.2652187035296
99.257514345812
99.2242889465619
99.2551929971987
99.2840175365185
99.2501054338819
99.2668617014131
99.2833308316611
99.2858048395894
99.2798861158842
99.2536068432384
99.2699166852498
99.3011724458686
99.3133726693282
99.28158215713
99.2597599200453
99.2940179948329
99.298825267854
99.2968235501126
99.2899049988174
99.2967737475064
99.3238718386734
99.3280386259627
99.2828831926445
99.276687466741
99.274064247905
99.2680431971166
99.2996890016795
99.31690181333
99.3073620413848
99.3339525155479
99.3362416909703
99.3248898808941
99.3351087087045
99.3332190036973
99.3224404601811
99.3010264794145
99.3011796698299
99.3303395307847
99.3626684771156
99.3812651754334
99.3717496590147
99.3629043091328
99.3467109288646
99.3310291816317
99.3277653937544
99.2875366970288
99.297858123671
99.3360931510273
99.3381249811639
99.3658282546194
99.3704812661248
99.3583394511572
99.3403867756203
99.331218418743
99.3250566734695
99.3469589487602
99.3744578243385
99.3943023774883
99.3723765217802
99.338375631699
99.3300430336772
99.3513715802981
99.3684744640664
99.371168898967
99.3898102665007
99.3923426218271
99.3382421295507
99.3461286852709
99.3554692836913
99.3462769258506
99.3509797690901
99.3895267948034
99.3949437532484
99.4149412155167
99.4251429144003
99.4020687115171
99.3655584600264
99.3470765558898
99.3280074692892
99.3371331037722
99.3792607294142
99.3857315796144
99.3461716817435
99.2943680296986
99.3096933294928
99.3627597744318
99.352777640487
99.3058948967519
99.3090174657886
99.3132075332227
99.3298197608513
99.3611048934618
99.3812357508087
99.353460636116
99.312274231428
99.3105069508325
99.3190796061422
99.3676213910678
99.3641539352705
99.3574132393322
99.3832321329109
99.3689855618488
99.370767657651
99.3668271974701
99.3377377638969
99.3468925613738
99.3409207182233
99.3565154677207
99.3312318889945
99.3179868620851
99.3723994543033
99.3685266676025
99.3433916150402
99.3756754880618
99.3903930556047
99.3799992710717
99.3611995329842
99.3406806082777
99.3141912282216
99.2898714857361
99.3201808549038
99.3439468595345
99.3233992900101
99.3346564293669
99.3522045732618
99.3589305170376
99.3239150929617
99.2841581431514
99.2954479262893
99.3239929966112
99.3715866784882
99.3787323927077
99.3535085546352
99.3640109975803
99.342886252199
99.3170333539764
99.2938171707507
99.2937341540502
99.2986119720086
99.3149682876161
99.3543232363735
99.3334559360335
99.3035293893545
99.305773387411
99.3344305840349
99.3309045002868
99.3187448198831
99.3122021715082
99.3279075789766
99.335916920486
99.3151062940312
99.3111950644525
99.3447244216214
99.3506378796867
99.3316068068574
99.3295319423836
99.347545689895
99.3221495981869
99.3173838106113
99.3442976041023
99.3533586371442
99.3419550899269
99.3425956286688
99.3267928704968
99.2991962624851
99.3365986334115
99.3871377932476
99.3414772482669
99.3460241051311
99.387286256801
99.3665733395383
99.3536052034336
99.3376428489682
99.321250729805
99.3211928291767
99.3319989789186
99.3411614862118
99.3118678138232
99.3135184549286
99.3205874915591
99.3263238494148
99.3301235556878
99.359245134848
99.3510725667279
99.3413008667208
99.337907467798
99.339068419099
99.3411579780191
99.3640422274279
99.3701043513484
99.3547997771801
99.3434047665714
99.2953486807207
99.2783582027704
99.3288681641582
99.3443159467538
99.3357134063565
99.3329001586462
99.3456022812492
99.3516360095083
99.3361813658439
99.3239949714196
99.3224074924486
99.3311117238725
99.3333681031992
99.3184143298649
99.3049842105505
99.2935973403896
99.2840701212154
99.2962124726586
99.2766864035903
99.2731482998833
99.2915275389272
99.295083812889
99.2897205681815
99.3288327621052
99.3317454583426
99.2990007144038
99.3103646356393
99.3604512591302
99.3799025630091
99.3768158079194
99.3967153415936
99.4147971526794
99.4141624920038
99.4414563498922
99.4899626460741
99.5017572747388
99.4791660287865
99.4787737132894
99.51802926385
99.5354382274674
99.5107372737936
99.4928985829126
99.5253664804517
99.5938826766374
99.5994997925164
99.5030918845085
99.50047393758
99.5510461543179
99.4648108638003
99.3898163098863
99.3883849678707
99.3631355295506
99.338338452745
99.3741480650891
99.3213768973671
99.2310974728587
99.1718069711245
99.1311961010392
99.0430177718276
98.9847127028373
99.0019166507863
99.1400989367599
99.2774964240195
99.3689380226421
99.4115291877789
99.3998688252554
99.3849452765911
99.3745064392315
99.3586523672211
99.3424692163035
99.3211394068972
99.2733639641418
99.2513756911979
99.2837638169967
99.3162758291763
99.2860356839418
99.3060071178112
99.3057669420752
99.2895525398217
99.2514960230025
99.2745622922029
99.2482326695529
99.2589979009204
99.1959153136142
99.1914257676351
99.1832417424265
99.243666847779
99.1317531334794
99.1251297016857
99.079308365845
99.1714772044524
99.123425293499
99.1562728481578
99.1364123186287
99.2255801326652
99.1817571662979
99.1696921032434
99.1821495183812
99.1923194813346
99.2242023297419
99.221136409799
99.2471331268834
99.2168409588861
99.2660039065338
99.2371256277751
99.25881943542
99.2862953728707
99.3201951830785
99.3043862137913
99.2559744167906
99.2855298561878
99.2693362651141
99.3045796674999
99.3045233046158
99.2738796685746
99.2797708656948
99.3114951826808
99.3777606668373
99.4046108364302
99.3859691592496
99.3840574244795
99.3674708036403
99.3480334084525
99.3990274638515
99.4537511096367
99.4188550640787
99.4067800541173
99.4352601958273
99.4373390458763
99.3978693526953
99.401981494443
99.4752897637334
99.5431991763167
99.5608719838853
99.5501162606217
99.5418141499384
99.5442633709338
99.5549806031532
99.6446764228371
99.696040106266
99.6852670846671
99.6904334449844
99.7066673364128
99.6538260913845
99.6323433249723
99.6769077262688
99.6960053879921
99.6973533587108
99.7026260335614
99.6888248190533
99.7335190617589
99.742904000367
99.7552833385817
99.7780008481782
99.7876171812061
99.8175835662025
99.7903469272784
99.7469420709979
99.785837155067
99.8250078660746
99.9091443335265
99.9217933097954
99.8783203497126
99.9252124894334
99.9193635998374
99.8519163342941
99.8960345080142
99.9692416606122
99.927883007236
99.87506387112
99.9096005003667
99.9170089191567
99.9598451230436
99.9652718914708
99.9308249006942
99.9193815228007
99.9455889629888
99.9142917342242
99.9568400086885
99.9786214742888
99.9181301823613
99.9066723561952
99.9593421317485
100.004075928003
99.975022297403
99.9934234131852
100.020654374781
100.011987708081
100.031868430668
100.001076638535
100.028770883596
100.100188751514
100.16460039355
100.111255252456
100.06509569942
100.095464755264
100.091742058869
100.132871839748
100.131289475774
100.044639406516
99.9916151571802
100.076088850416
100.103569537997
100.037547828389
100.040941794503
100.071418592401
100.094638708653
100.089131438836
100.068344974183
100.058304443087
100.066758750186
100.050210921144
100.130428842067
100.116082067636
100.047776173082
100.076683327582
100.137983912887
100.162071364036
100.110084411786
100.114268355941
100.215130997362
100.205425080498
100.126404068876
100.106700403077
100.07885727983
100.082975858126
100.14161161237
100.162837675964
100.183009264602
100.179215019352
100.19007142401
100.228206195132
100.238754575827
100.151041550725
100.170120775956
100.232538098876
100.248772204327
100.244876224646
100.243777964636
100.169754644727
100.157109668667
100.182616033051
100.214474805231
100.153000586231
100.144741503982
100.199981784219
100.198912327453
100.284360561924
100.393110184928
100.397336779734
100.327837027702
100.248211238387
100.276111192479
100.286981723566
100.365837387118
100.454910632343
100.519749972836
100.539397629333
100.483348821002
100.417062616644
100.460213969113
100.568656532348
100.665610536528
100.581685274321
100.462483937293
100.473424995876
100.455227575966
100.297513567811
100.215679156896
100.05521024269
99.9149290570951
99.8932808572754
99.9496659547305
99.9534690931582
99.8609611168401
99.8375371255548
99.8756408398121
99.821516050668
99.8449288754573
99.7981108459903
99.6502558854864
99.5932245452818
99.6321755081261
99.6200155875584
99.6291091699024
99.6938830122248
99.7108541315761
99.6356399033771
99.582907666887
99.5032663717583
99.4705440705211
99.4791493515946
99.4877612070802
99.4766692977167
99.4456108249575
99.3636929371375
99.3317197251185
99.317736304969
99.3297904007682
99.3216467556015
99.3230404295248
99.335855263551
99.3162862216284
99.3490711219026
99.4033588903523
99.3240238311972
99.2817225382669
99.3502801381619
99.3869200165314
99.334518357284
99.2994774104953
99.3412027898136
99.3428689565404
99.2649288082471
99.317472362055
99.3634401427021
99.312177320363
99.2795564662554
99.3077418362624
99.2811859018708
99.2785298564953
99.288249237122
99.3213446976488
99.2910489574564
99.1753632724838
99.1383339276285
99.2434102868863
99.2890570584392
99.3295559024967
99.3000078337017
99.2536102529797
99.2792969324394
99.3246332783383
99.2795721751204
99.2170697219117
99.1614489637631
99.1541279257232
99.1937118911904
99.2282396483602
99.2331751630792
99.2370388838625
99.2130072275764
99.1790845622745
99.1621865586252
99.1662194885372
99.1928177007505
99.2168539732486
99.1551112501165
99.2167620987832
99.2956905220726
99.2767668206661
99.2065636587908
99.1880708590324
99.1922113106421
99.1801273430202
99.1651076833717
99.2054782627503
99.2485896194903
99.2554265558256
99.2308871888622
99.2526589730124
99.2288194887823
99.2082532678133
99.201401223582
99.2065754783563
99.1679357128141
99.0889244814803
99.0977442884054
99.1798667677806
99.1657545190462
99.1329189529414
99.0917004810797
99.1547337028028
99.1595959775131
99.1122132325309
99.13530737434
99.1567834136702
99.1238506484866
99.1590979948958
99.223628464153
99.2637157664886
99.2732949319434
99.3449766357163
99.3846460246498
99.365982693685
99.2618712043206
99.2250154221287
99.197939671503
99.116419898722
99.1009048091769
99.1641573878868
99.137611276517
99.0939316687196
99.126880995214
99.2190850625376
99.2088669078363
99.0996615578451
99.0192035627864
99.0678578893071
98.9998785793208
98.9848377604967
99.0006043549194
98.9320294508258
98.7984251067087
98.7763618644001
98.9050611124964
98.8488399709155
98.6795022576461
98.8678295139803
99.0530564142744
99.0893465034365
98.9600024883569
98.9269048962453
99.0275631570491
99.0041672872533
98.9549506383961
99.1277100455294
99.1331717428712
98.8754669619741
98.7710313495328
98.8259456764153
98.808632204895
98.7780661666999
98.8524976403152
98.9620720508579
98.8892728650738
98.9137914953163
98.9917738423967
98.9134715498659
98.8160609450102
98.943837162767
99.0340633579323
99.0739632152983
99.0536372044632
98.9759874191937
98.8670519940646
98.8407006662373
98.9042074387486
99.0406003760742
99.0891377848198
99.0915029102194
99.0734457106497
99.1391647504072
99.3326226773199
99.3494097648789
99.0317991304786
98.9991735407741
99.1345388306646
99.1727792524847
99.0794708277708
99.104855747018
99.1314640344602
99.1747675366047
99.2325845409336
99.363597749296
99.403822533946
99.350820041547
99.3588533946295
99.5012827142408
99.5065971592872
99.4602770549052
99.4922080216986
99.4647718125022
99.3975005477978
99.4605371603946
99.3619098541683
99.2899454108679
99.3096199687298
99.3124270898913
99.3500229394947
99.4411670813424
99.3169117829791
99.2122098270355
99.2070421137873
99.3154787906485
99.4123343338074
99.3534274973479
99.2358844548047
99.3046565998737
99.3442679967551
99.2449491091249
99.2755019902962
99.3876527241982
99.3656648725906
99.3318507393474
99.2279310750568
99.2771784666423
99.3760355988423
99.3348872609783
99.2967834001041
99.3371263289759
99.2820460818652
99.2900926372835
99.3932821392969
99.4397713645866
99.3433151874176
99.524721821652
99.6914623936453
99.2865320657071
99.0769780496361
99.1478431339514
99.1702799054043
99.175385777764
99.1792221084383
99.2639321865928
99.2893366806729
99.2775014677969
99.3175502886012
99.3058274477317
99.2544793807202
99.2697443453933
99.3414869881502
99.3559173695405
99.3045541585373
99.3258400260121
99.3083165861064
99.3317511115376
99.4986262730842
99.5596743188253
99.1609403928454
98.9662793386933
99.1572811484032
99.4428915329355
99.7239651216756
99.3164072069495
98.8975915404361
99.0824655293468
99.2195849223374
99.265349642828
99.2340151276153
99.2035340140129
99.2432709231365
99.3332183404166
99.2531620469873
99.2687918362079
99.170448328524
99.1252244658519
99.2051616929197
99.2172256979358
99.1918090005955
99.2514315348815
99.2883502207498
99.2801099705439
99.2467804671945
99.1869863227031
99.16259601813
99.2019042098793
99.2848675134284
99.3414403773979
99.1862230226455
99.1861049383157
99.2638704847358
99.2920536245569
99.4283984396888
99.485128072725
99.0816876761584
98.9919304627927
99.1248792889795
99.2460913885148
99.2592602377387
99.1952079141345
99.1975298985296
99.2343819533024
99.223816143693
99.2253695959672
99.1877466397821
99.1674005599533
99.1936161772195
99.2297967647213
99.2171807493622
99.2323010326132
99.2501782298867
99.2370673007606
99.2346674953565
99.3111202961951
99.5364229092673
99.5633892154902
99.1787386189709
98.9515837201053
98.9334957472436
98.9726660901285
99.015537342231
99.1208383419542
99.1741407458254
99.213359844522
99.1766129029763
99.1720076557709
99.1433490379316
99.1280284901914
99.1075792600667
99.1328137237774
99.1371290165073
99.1745775945226
99.1723377760201
99.2001259225263
99.1922710533835
99.1817090272082
99.210742041408
99.3146132225589
99.2488716362134
99.099655742657
99.2410512323208
99.6884644844518
99.4421971883485
98.6210136291207
98.7531841048635
98.932467952273
99.0039069453138
99.0634243724201
99.1498610931273
99.2585077489858
99.1306106653145
99.0271945858571
99.0826758233989
99.1449692720487
99.1293904579591
99.1149950174273
99.3964447526474
99.5992929758096
99.0548737685028
98.6990802910597
98.8803843306219
99.2237681111394
99.3891864937678
98.896343027764
98.7954894087787
98.9847877004352
98.9664382828633
99.0187473172333
99.0552210510717
99.0897844021206
99.138429801757
99.0869709751247
99.0147829165285
99.0593624476452
99.0528190203365
99.0817251366588
99.0947445097174
99.1843082925702
99.1114789851908
98.8277035117289
98.9238072544697
99.0498857151998
98.9512556867966
98.9883130372828
99.0266025114147
99.0473839963463
99.1689592731162
99.126700893861
98.9113954783809
99.0591201036715
98.9860708789084
98.6877640259925
98.8457093507463
99.0732577525012
98.9803696728089
98.8328836775803
99.1592690137253
99.4807854559426
98.960757070302
98.7090466478368
98.558862546032
98.6543029959901
98.8222301637624
98.8718307453003
98.9756296087446
99.1294240616938
98.899040799904
98.7121396047286
98.8815387976005
99.077721004011
99.106166194071
98.7682688281253
98.7252212142299
98.7834355636771
98.9077552287984
99.0638574480287
98.9046935909237
98.907971296433
99.4238511154528
99.3430151407786
98.6616989140722
98.301912045078
98.5269214063145
99.1032230025965
98.7726226205676
98.3880118156394
98.6426331615
98.7512813711622
98.8122051284267
99.0692033233931
99.3416250075003
98.7441054123256
98.3773897304109
98.6704406849933
98.8464452903914
99.1060998824967
98.8983017703033
98.4335547081963
98.5976841407049
98.7679031969331
98.9531812327285
99.370681387278
99.083310800623
98.4660389292423
98.8499640228073
98.7319303455939
98.5544632751383
98.490002020871
98.5582216427989
98.8315646566537
98.9266516395584
98.5366154864999
98.5430743389021
99.0883524088231
99.1450953420425
98.3750639697001
98.4334237026852
98.6271639614434
98.8393102772501
99.4513758798638
99.5554647522275
98.3566765104661
97.7297385487343
98.2089091701543
98.7494321521651
98.5117949478827
98.2677600706898
98.4909104181097
98.5727097621332
98.5861818046689
98.6455992781997
98.73352572367
98.6066729335742
98.4927121822192
98.5378648609941
98.6487317610019
99.0636952645609
99.3455929603635
98.7582872028406
97.9793581428606
98.3122440785295
98.4152573097425
97.9640090548744
97.9903394294151
98.2087042903146
98.4942071917368
98.465701336168
98.2776505440373
98.3978267975043
98.7223215667277
98.6646260564311
98.3761875577065
98.3462313531771
97.9962276390557
98.1211817869197
98.8148370244373
99.5266061989033
98.3185162424862
97.0181539656008
97.7308268979127
98.4643869589223
98.8702988999195
97.6023718965129
97.1181823083526
97.6572999175012
97.9115370151792
98.0710280683127
98.1909334445132
98.0639869504708
98.0155139863926
97.8327771576822
97.8001827776388
98.3560624963511
98.8751984717162
98.1751984966026
96.8627809106688
96.745109375859
97.4434695155922
97.6515948493263
97.2959864827392
97.2916833229063
97.4577221315912
97.7908508273029
98.1478378034202
97.2181610628772
96.7644500468908
97.229311232002
97.4517665875858
97.2371366951263
97.4137187057462
97.3713355079409
96.4522566117793
96.5104163020508
96.7349285525479
96.8047178909755
96.8891977144259
97.1682805106108
96.8882724943986
96.2804537728391
96.3252910816212
96.4326988147681
96.4711929926615
96.4756449321568
96.434974371599
96.4773729095281
96.8006688443726
97.0997680501165
96.9933911402036
95.7274993640972
94.8072168231368
95.5546875345164
96.1884552722527
96.6155517403042
96.5765838450722
96.3388943938521
95.9592640287659
95.4411413482005
95.8337413358213
96.2086300610127
96.2819697601075
96.3414814890447
96.3685453882138
96.3771873081546
96.5441696185261
96.6207628260647
96.7070391008235
96.9192483229535
95.7651583633609
95.5830052565113
96.1576719036817
96.3832368933469
96.4463507529353
96.5205576684899
96.7036757504565
96.8737886061352
96.4999881812218
96.3387608356077
96.6135133970553
96.9769163573422
97.0131438895219
96.3810230443842
96.3982466230187
96.6836263337438
96.7747796420758
96.8992191309896
97.2832510335999
97.5610826317452
96.6405284678991
96.3169122394502
96.7704339680595
96.9893169924026
97.084544092359
97.13079915024
97.2174627225515
97.2324736650804
97.1300449195869
97.1868386684236
97.2275182166945
97.1923558497221
97.2821995597087
97.3683973273363
97.3896014642595
97.3649785612648
97.394464321255
97.3889618788847
97.439635116168
97.4617261431739
97.4780506112758
97.5070034177426
97.5525636847517
97.5677426823172
97.4909505555326
97.5104153856719
97.5891990083091
97.5904745299949
97.6126497637962
97.6025940602309
97.6172196989904
97.6503753023089
97.6704358788796
97.6794779432062
97.7056030127654
97.7207340511707
97.7346395222745
97.7342215308263
97.7462151072178
97.7563238229773
97.7904736581383
97.9796966329916
98.3809711774364
98.1154793622619
97.1276134726793
97.3189791513988
97.6499393955133
97.7282339669671
97.9268747007283
98.3222921040239
98.1856885677696
97.3358851881788
97.3923038727736
97.7605255299386
98.0396097881906
98.0076972981834
97.6795183838878
97.7279788808805
97.9773041997964
98.4261492533229
98.8734432365543
98.4778320631292
97.977075269987
96.6928795632245
96.6741768472953
97.7007122456592
98.2137059262383
97.473793245128
97.2954791794514
97.7722602995564
98.1449638953586
98.0837908095885
97.5491045401998
97.6221813025958
97.9104562260162
98.2260743559642
98.3235920673974
97.8587787913233
97.9413067569904
98.2771086208394
97.9776918583669
98.1033573765725
98.4404382789903
97.1374077911578
96.5366055073211
97.1940514682817
97.7220309047308
98.0250746129171
98.3194758008716
97.8428762510458
97.3296366008342
97.4801070495482
97.5978529903006
97.9136434075149
98.0800039659491
97.8769347134128
97.8129941956115
97.9750615715128
97.6126526196364
97.5169721579618
98.0619195660446
98.2128438485388
97.9344086244161
96.9493020853587
96.8724407399306
97.7032001789105
98.0649410355463
97.2578287882489
97.0111597071504
97.1396886323255
97.3449137666588
97.6595328455151
97.4286267345934
97.3019950426943
97.5525814049554
97.5437862145832
97.6942356038594
97.7820838696447
97.1154631755789
96.0397111122284
96.0831226396495
96.6876395218174
97.0432254832332
96.9901688704747
96.9759790239139
97.1968830478108
97.1165260919632
96.7784241126009
97.1378806030137
96.8987307637931
96.264784654146
96.5053886509518
96.6935319791257
96.8461084534287
97.1203509415852
97.0345243673151
96.4412945294902
96.3010785567851
96.5760726357137
96.4131876609452
96.2966121919551
96.471826791489
96.5653081142486
96.6346533144235
96.6852596954793
96.6090155554074
96.475170240482
96.4952953703601
96.5727304376258
96.7874259109147
96.7888687107227
96.3012119981306
96.4272438670461
96.8171857115338
96.5789573760591
96.0454202789449
95.6704251134286
95.9484244080964
96.2062378352705
96.2516120383215
96.2737746156816
96.4506981349448
96.5901810109963
96.0868799009897
95.8078852066254
96.039581035015
96.1121363067478
96.213024699541
96.3720836934505
96.4139286578617
96.3591433343505
96.1521924583955
95.3389573513957
95.2385134539576
95.5677867138726
95.859052772932
95.9874172098368
95.8892242683371
95.9134053130929
96.0960732955732
96.275979903652
96.0473164656718
95.791190663945
95.962303113844
96.0804497496484
96.1301188534596
96.1745522600914
96.2024261150533
96.214874164076
96.2183246932759
96.2326292257251
96.4454282729982
96.7677476618793
96.2818910816521
95.5280047691759
95.792338966613
96.0130800309912
95.9415734185185
95.8908063768048
95.9969358781828
95.863175621043
95.4825476213124
95.4239555563129
95.4378340081629
95.3784584301008
95.4310242552276
95.4062513097431
95.0681848426604
94.8487517849406
94.9936313967098
95.2833089610844
95.3843387337486
94.7069358754217
94.5092784062348
94.7146921108562
94.7616687828819
94.9263954536289
95.0654767029095
95.1801167019488
95.2504007817449
95.2717417253799
95.309486613667
95.4032111624317
95.4994901628255
95.5884010201191
95.7351260865178
95.9275601579463
95.8483066740732
95.7037938693257
95.896275920789
96.0621513461034
96.2232891441831
96.4601227307434
96.4649575151603
96.2321022646071
96.280417185896
96.5523533297294
96.771172614599
96.616132692819
96.3497483239048
96.5697669305915
96.8518342637254
96.9425500998467
97.007755539884
97.2128373807467
97.4205299478897
97.2069460099203
96.9626456945563
97.1397067353221
97.3343627651363
97.4287960521849
97.4806515741096
97.5365776111576
97.5890323185656
97.640130033511
97.6660158652083
97.6593932209483
97.6777998386301
97.8030464417962
97.9176930676421
97.8004556747847
97.5656460846237
97.625291723345
97.7933103656823
97.8897410917909
97.9822869212889
97.9521387573237
97.8801095673427
97.9351746612116
97.9916102248684
98.1107702393995
98.2564642472816
98.1105113661472
97.9146785832996
97.9228095324767
97.9031329322735
97.9944541030796
98.0761561632424
98.0682603878997
98.1094272745327
98.1463739880962
98.0995288917505
98.0685413917494
98.1129294577237
98.1216486522235
98.1274437394384
98.1526853464695
98.1381175973904
98.1197068954405
98.1298491820621
98.1490031779639
98.1529052616406
98.1438791944144
98.1424350467502
98.1640071520382
98.2588367129721
98.2841948325603
98.1289619310549
97.9647416877418
97.9578579927107
98.0083959799351
98.0052431098416
98.025341960904
98.0878107242373
98.1079573083955
98.1091073806373
98.1148795333765
98.1182318420244
98.1015869201343
98.0983327741596
98.0986325878382
98.0910208223055
98.0832285035757
98.0759176865208
98.0710781939615
98.0694940882261
98.0632710238921
98.0663562393351
98.0706617181642
98.028643048921
97.9724745350659
97.951868198228
97.9409950298142
97.9642188132823
97.9915231340496
97.9873551027203
97.9416823849209
97.8897122389921
97.9130380006745
97.9541387455163
97.9591711543792
97.9380486860991
97.9271799737539
97.9214439464216
97.8991480900964
97.8894311112357
97.8955408611334
97.8911716753674
97.8738767565902
97.8680163220024
97.8699288926922
97.8587655084417
97.85248868367
97.8373747033343
97.8152837121102
97.8034924501451
97.797455432063
97.7920774726528
97.7872509455825
97.7783729936367
97.7635306609602
97.7542381695253
97.7531405835799
97.7205861598028
97.6912957814204
97.6941585134002
97.6987539454914
97.6876862805551
97.6801176335168
97.6620836230494
97.6437908309599
97.6272914852035
97.6214507344629
97.6098426168842
97.5987970582929
97.598758631972
97.5905261687054
97.5682318102115
97.5607101556456
97.5619837963977
97.5370366496509
97.5031788879898
97.4872487877617
97.4826278875684
97.4761105309709
97.4614891076089
97.4343347791105
97.4102001513011
97.4051770860537
97.4030433311539
97.3970085319628
97.3948245477743
97.3615522281655
97.3148992488277
97.2995463612262
97.2906678764803
97.2800779361315
97.2499969383513
97.2318045593357
97.2324339075954
97.2193549469914
97.2057601141751
97.1907236113773
97.1717950878181
97.1533291431674
97.1431868642786
97.1336090580896
97.1144503415361
97.1037523901152
97.0859358123439
97.0558382996599
97.0323781880541
97.0159854817544
97.0052339431162
96.993955566381
96.9685349103836
96.9427316225525
96.9259286422267
96.9133447051331
96.891235382645
96.8691034939256
96.8404353268409
96.8115104541974
96.7849460369024
96.7538522901905
96.7290112955513
96.7116648008784
96.6909917416902
96.6682624290957
96.6432084373733
96.6040420513069
96.5703444933346
96.5438619376652
96.5059923135124
96.4719681159516
96.4507698045969
96.4226826654861
96.3861832318969
96.3506788826405
96.3089298267994
96.2695069617578
96.2387502738329
96.2126575227427
96.1726387682242
96.1230582836058
96.0893249306259
96.0632712690097
96.0234756997415
95.9783618484874
95.939689079395
95.8965212597109
95.8468898851804
95.7989793255056
95.755580993849
95.7050791061835
95.6592506270516
95.6195379100304
95.5711974955198
95.515438031904
95.464780875586
95.4238708542557
95.3626114905638
95.2990344929774
95.2495694179574
95.1818350127333
95.1061884946201
95.0551746512793
95.0041581380636
94.9435500949712
94.8717038565534
94.7969295174232
94.7235295618765
94.6535443087128
94.585352977935
94.504532482172
94.4188992674751
94.3430058856748
94.268982595699
94.1798661705789
94.085340372163
94.0025901959715
93.9120013759073
93.8110385363336
93.7177051301253
93.6115528020803
93.4988273468057
93.3940600484922
93.2771854615562
93.1616017882018
93.050927357996
92.9399242932445
92.8177861225764
92.6866282802273
92.556252606873
92.4262415786665
92.2889845427505
92.1512693121759
92.0033559904337
91.8521895018306
91.7039872437702
91.5601292310676
91.4157450716692
91.2575994060875
91.1015898225707
90.9492587285542
90.787704803748
90.6199604144432
90.4444921345935
90.276185961466
90.106254617563
89.9309440552078
89.7499860859741
89.5669370321851
89.3807423501551
89.1851266528769
88.9872845690121
88.791275671457
88.597294208699
88.4066164057623
88.2053351832417
88.0009688203836
87.7945096953806
87.5943302629832
87.3923048535641
87.1871697914587
86.9740345420655
86.7582780451805
86.538694834496
86.3160034415804
86.0806964238759
85.8308495461939
85.5589002272684
85.2652188743484
84.9400228775606
84.5993628215752
84.2179099955476
83.8052101697485
83.3651635912616
82.8876512781757
82.3811152940507
81.860090656321
81.3123996498456
80.741001837078
80.1465057485979
79.5416946152472
78.9299172415389
78.3202881003414
77.7042554631877
77.080440192466
76.4565557579215
75.8478382004076
75.2439962549379
74.6445477612529
74.0627234298998
73.4939890103694
72.9244694951396
72.3815253776037
71.8549177837489
71.3279152465583
70.808749340538
70.3136815821497
69.8267830275329
69.3531873977977
68.8975807375642
68.4582038436943
68.0305271981168
67.6285487154517
67.241833342298
66.8643508226779
66.5081883607748
66.1854304374204
65.8793707726575
65.5964887407794
65.3343996303699
65.0901543567024
64.8746931906808
64.6847772221353
64.5043605245226
64.3340996840221
64.17222914674
64.0178500637676
63.8476997762257
63.6641467142283
63.4519457969983
63.2244668015931
62.9666950788443
62.6657276490434
62.3186584366055
61.9515542247309
61.5593989862384
61.1519964098724
60.7275008319136
60.2903179699983
59.8321859560983
59.372583146406
58.913826486563
58.4507527014217
57.9707007324416
57.4913678599791
57.0016260987987
56.5217316075257
56.0240441170527
55.5173981117377
54.9994187638022
54.476180893808
53.9401013017449
53.401933910403
52.8482186315481
52.2910991126507
51.7126689792644
51.1201520742471
50.5145265647094
49.9082526950355
49.2888057477039
48.6502291157965
47.9883411822484
47.3140278176865
46.6044801958167
45.8707281272675
45.1101115392062
44.3364960179768
43.5270021382049
42.6975907890608
41.8383801391822
40.9701632805938
40.0826609039235
39.1869692704062
38.2719535341111
37.357934238319
36.4331415644275
35.5038022417162
34.561801396114
33.6246878159511
32.6656776764017
31.682208441145
30.6600772376985
29.6271140233277
28.5757615972111
27.5243535894464
26.4886351865015
25.5224270027972
24.6454183576785
23.8894942571653
23.2476555859091
22.7658987390579
22.4364494086536
22.276441572535
22.2824842596806
22.4629048544845
22.7880187227233
23.2709176238361
23.8868673573257
24.6210823493977
25.4510080675474
26.379630065927
27.3750280175024
28.4466870350861
29.565623602061
30.7226919995107
31.8960604411879
33.0965020627588
34.289528013288
35.4791518217896
36.6648397296932
37.8535070051998
39.0210014482821
40.1801040596115
41.3228234482163
42.4539125426566
43.5659101994601
44.6584214934487
45.7147680180284
46.7564717228064
47.7688149321582
48.7459032602511
49.6879447314853
50.6138232177401
51.51363246694
52.398635546212
53.2489641368109
54.0741896931334
54.8709710741141
55.643275109243
56.3907078490273
57.1403836341331
57.8651386295063
58.573021943348
59.2697726035017
59.9620960186283
60.6322543361845
61.2971501015282
61.960272770104
62.609541757232
63.2510286795621
63.9006539790803
64.530741667318
65.1433361709471
65.7411114670449
66.3232876800741
66.8805716470668
67.3995120327915
67.8775789455188
68.3189407645457
68.7081824970767
69.040211772415
69.29676627641
69.4774145583386
69.5754825563406
69.6040108418308
69.5566269949139
69.4647171489887
69.3577542824138
69.3258029230282
69.4069992433995
69.6121001875593
69.9432211496635
70.3662800330722
70.8444680181645
71.3706450487027
71.9038107210747
72.4386330551687
72.9428217450621
73.4446150737445
73.9464689250745
74.4264664379328
74.8675007610761
75.2935632588126
75.7148090334215
76.1427290550938
76.54824530224
76.9538725667644
77.3516746433735
77.7348420844752
78.1065011039373
78.4720084280648
78.8209241737769
79.1555466828189
79.4891388579073
79.8164905331732
80.1162825629748
80.401870066909
80.6777190458264
80.9499799111719
81.2017678798585
81.4554780263753
81.7072421087778
81.9324173644272
82.1519616798964
82.3832552864082
82.5922975233419
82.7853078834113
82.9830032625855
83.1831102488879
83.3628281217178
83.546936144183
83.7224729848432
83.8836294625201
84.0371643878105
84.1880479463848
84.3408350420473
84.4780740522225
84.5978137703698
84.7218305756212
84.8482645146814
84.9776571355159
85.0961313264557
85.2082850289094
85.3226549437375
85.4436052125833
85.5409596043779
85.6251248921027
85.7111899830491
85.7944984215757
85.8941203898301
85.9882581690226
86.0500210762578
86.1201048494071
86.2031868363711
86.2792952781187
86.3497217408695
86.4174732808106
86.4824280213628
86.5553758311314
86.6206126324319
86.6743729907387
86.7470566140804
86.8107494937366
86.8553163365293
86.9078242118081
86.9804939368713
87.0618182693908
87.1098479084252
87.1544340012689
87.2170440599282
87.2672769556441
87.3108118370036
87.3707142736946
87.3943162147601
87.3696406846752
87.3518207399757
87.3292452559431
87.2688629545749
87.1648620521188
87.0285064808425
86.8873431025084
86.7774797834936
86.7631345761522
86.8021810491415
86.890944457809
87.0454628553529
87.2197732633419
87.3573858201573
87.4906425337286
87.6315161654894
87.7597875856179
87.8719814001043
87.9957594861202
88.1480158700757
88.3173920518461
88.469793561663
88.5944513979252
88.7247178889827
88.8710567906754
88.9915587633513
89.1183895355387
89.2546204691835
89.3532018289843
89.4431009511746
89.5585908257702
89.6742201122553
89.7599825646846
89.8257580996464
89.9079253454593
89.979473370087
90.0455913225247
90.1247871912853
90.1880229565007
90.2365900912615
90.3325343334793
90.432865341049
90.4827043202422
90.5186469181036
90.5779180291923
90.6410231300249
90.6968431960197
90.772921684762
90.8282833414641
90.8273009886173
90.857588366603
90.9235403042101
90.9965713118869
91.0251477282156
91.0278270411568
91.0725759097316
91.1044029491344
91.1286804750237
91.1887255445
91.2457267388636
91.270765025267
91.2935608101874
91.3329283885764
91.3339371907199
91.3372174451447
91.3768834772072
91.421591804822
91.4459425783521
91.4713349251234
91.5039898774564
91.523873529403
91.502223594
91.5085996033034
91.5205994003543
91.5363893203917
91.5463696091282
91.552987739299
91.5385139649672
91.5426104939814
91.5709473679232
91.6099241125008
91.6047144962807
91.5655303333719
91.5851575932416
91.6057277232342
91.5864768439467
91.5948310538723
91.623938926354
91.635170443396
91.6117956535288
91.610686226426
91.619602734412
91.5877244614689
91.5910061964165
91.6443053445892
91.6297817474851
91.6124538207847
91.6502280962956
91.6910790304886
91.6914436615814
91.6779863908326
91.666178527759
91.6833282015814
91.6864043394818
91.6823094314078
91.7148009929243
91.7272995470156
91.6969367105296
91.6626522273483
91.6632868470205
91.6994675276725
91.7059406233382
91.6660418911743
91.6187833246778
91.6347888948777
91.6660687937012
91.6789460992309
91.6515192218274
91.6301410731179
91.6032752106832
91.5936002795198
91.6209978313872
91.6407260433299
91.6363279184022
91.6545685209973
91.6080932821767
91.5438976875914
91.559924089172
91.5682228901598
91.5914417138977
91.6156317473101
91.5588266349004
91.495581295235
91.4738472568287
91.4845389661843
91.4605348456245
91.4441911248814
91.4706856337186
91.4635556262639
91.4169977206018
91.4068784909694
91.4027610496259
91.4230153207034
91.4424092172282
91.4329030446017
91.3824492233381
91.3233098242313
91.2964684740227
91.2819758727793
91.2908509027787
91.2847346889204
91.2679092671046
91.2965511318732
91.295286498082
91.2456079907695
91.1756236916269
91.1277239006623
91.0450700833176
91.0494648247522
91.0976248912573
91.1088004321407
91.1229674461421
91.1390275530673
91.1026737617548
91.0341804700797
91.0266761997191
91.0766467856223
91.0575772140013
90.970329039134
90.8777664886076
90.8380035372526
90.8622664188952
90.8568113372551
90.8183542525826
90.7860582804868
90.7561803337715
90.7864493062907
90.8117596371055
90.859637005288
90.8313057252009
90.6448540553039
90.537101874786
90.6198410443223
90.6384297015127
90.6696893722304
90.6771991182516
90.5399594626007
90.4591953089229
90.3791689322262
90.2629901314014
90.342248990259
90.4617259860349
90.5682372163695
90.4985455135546
90.3266000771317
90.2278829986037
90.1663706672964
90.1553809716853
90.1663833064489
90.1388439136994
90.1065691368363
90.0199503167021
89.9435484785133
89.9031868356195
89.9467194580114
89.9058808863449
89.817649405064
89.7064229616277
89.6452271147906
89.6570087208273
89.6148132081035
89.6541509496655
89.6883541560723
89.6110997741091
89.5648612308694
89.4523362615669
89.2724415384523
89.2718178898193
89.5258651647966
89.4449001490959
89.128094324685
89.1094284591649
89.3362233892055
89.4227480862475
89.3169560228033
89.1533765519778
89.0321421149962
88.7491837558968
88.5860909697625
88.8832819942824
89.111335930911
88.0504722723032
87.6537049425059
87.6606644183993
87.7329755473038
87.9482638090337
87.9657178072884
87.9945243862113
87.9924766928093
87.775322590844
87.3751259907869
87.2176233640841
87.2201267895429
86.7600809752246
86.5082516364992
86.5720128423887
86.283169392034
86.1260571281345
85.9200402302338
85.4610631533338
85.2199339527531
